Time,Sternum_X,Sternum_Y,Sternum_Z,LShoulder_X,LShoulder_Y,LShoulder_Z,RShoulder_X,RShoulder_Y,RShoulder_Z,LASIS_X,LASIS_Y,LASIS_Z,RASIS_X,RASIS_Y,RASIS_Z,RPSIS_X,RPSIS_Y,RPSIS_Z,LPSIS_X,LPSIS_Y,LPSIS_Z,RKneeLateral_X,RKneeLateral_Y,RKneeLateral_Z,RKneeMedial_X,RKneeMedial_Y,RKneeMedial_Z,RFibulaHead_X,RFibulaHead_Y,RFibulaHead_Z,RMidShank_X,RMidShank_Y,RMidShank_Z,RAnkleLateral_X,RAnkleLateral_Y,RAnkleLateral_Z,RAnkleMedial_X,RAnkleMedial_Y,RAnkleMedial_Z,RHeel_X,RHeel_Y,RHeel_Z,RMT5_X,RMT5_Y,RMT5_Z,RMT2_X,RMT2_Y,RMT2_Z,RToe_X,RToe_Y,RToe_Z,LKneeLateral_X,LKneeLateral_Y,LKneeLateral_Z,LKneeMedial_X,LKneeMedial_Y,LKneeMedial_Z,LFibulaHead_X,LFibulaHead_Y,LFibulaHead_Z,LMidShank_X,LMidShank_Y,LMidShank_Z,LAnkleLateral_X,LAnkleLateral_Y,LAnkleLateral_Z,LAnkleMedial_X,LAnkleMedial_Y,LAnkleMedial_Z,LHeel_X,LHeel_Y,LHeel_Z,LMT5_X,LMT5_Y,LMT5_Z,LMT2_X,LMT2_Y,LMT2_Z,LToe_X,LToe_Y,LToe_Z
0,259.461,1604.55,1386.14,75.037,1491.6,1439.52,447.047,1522.49,1415.46,139.262,1600.51,995.983,398.989,1598.73,1005.27,327.034,1423.8,1021.48,197.161,1418.89,1016.56,448.157,1479.29,538.915,323.717,1524.75,498.584,458.347,1471.05,458.242,404.385,1517.84,287.656,475.037,1459.8,92.7902,404.866,1522.02,119.18,405.762,1404.44,61.3234,553.819,1596.83,32.4174,489.101,1616.12,62.8591,495.047,1669.11,44.2665,90.3277,1498.14,522.556,219.478,1523.89,493.788,84.9772,1478.98,461.924,144.953,1516.71,300.293,79.2838,1448.71,100.295,156.767,1498.88,113.931,145.538,1386.33,63.2005,13.6452,1572.95,43.8998,72.7398,1600.74,61.7594,58.787,1660.4,42.1096
0.01,259.454,1604.68,1386.15,75.0289,1491.76,1439.56,447.032,1522.62,1415.46,139.22,1600.6,996.007,398.959,1598.8,1005.28,326.96,1423.84,1021.52,197.11,1418.97,1016.59,448.095,1479.3,538.941,323.673,1524.8,498.582,458.284,1471.06,458.277,404.355,1517.88,287.681,475.01,1459.82,92.8036,404.854,1522.03,119.184,405.75,1404.44,61.3389,553.806,1596.83,32.4196,489.098,1616.14,62.8713,495.047,1669.11,44.2629,90.2763,1498.21,522.565,219.443,1523.93,493.825,84.9403,1479.05,461.94,144.921,1516.77,300.331,79.2817,1448.71,100.329,156.754,1498.89,113.933,145.531,1386.33,63.2239,13.6268,1572.94,43.8951,72.724,1600.74,61.7601,58.7729,1660.41,42.1087
0.02,259.45,1604.82,1386.16,75.0257,1491.92,1439.6,447.038,1522.76,1415.48,139.18,1600.68,996.038,398.925,1598.85,1005.29,326.915,1423.89,1021.57,197.045,1419.05,1016.61,448.022,1479.32,538.97,323.637,1524.84,498.59,458.23,1471.07,458.323,404.332,1517.91,287.706,474.993,1459.82,92.8616,404.844,1522.08,119.206,405.72,1404.47,61.3756,553.805,1596.83,32.4401,489.092,1616.15,62.8659,495.049,1669.11,44.2588,90.2349,1498.29,522.592,219.391,1524.03,493.872,84.8981,1479.1,461.961,144.892,1516.82,300.353,79.2856,1448.73,100.339,156.741,1498.92,113.966,145.526,1386.34,63.2524,13.6282,1572.96,43.9001,72.8657,1600.75,62.0422,58.7613,1660.41,42.1063
0.03,259.449,1604.95,1386.16,75.0223,1492.08,1439.63,447.037,1522.89,1415.48,139.131,1600.75,996.058,398.881,1598.89,1005.29,326.85,1423.96,1021.62,196.976,1419.14,1016.66,447.972,1479.34,538.997,323.595,1524.92,498.592,458.17,1471.09,458.352,404.302,1517.93,287.72,474.97,1459.87,92.8576,404.832,1522.09,119.207,405.697,1404.48,61.4156,553.795,1596.83,32.4391,489.077,1616.2,62.9198,495.04,1669.13,44.256,90.1819,1498.38,522.598,219.342,1524.13,493.91,84.8561,1479.19,461.975,144.867,1516.87,300.362,79.2788,1448.76,100.371,156.728,1498.94,113.981,145.528,1386.36,63.2823,13.6269,1572.95,43.8886,72.9078,1600.81,62.0149,58.7529,1660.42,42.1056
0.04,259.449,1605.09,1386.17,74.8442,1492.1,1439.77,446.994,1523.03,1415.48,139.069,1600.82,996.095,398.833,1598.95,1005.3,326.778,1423.99,1021.68,196.898,1419.21,1016.71,447.91,1479.38,539.025,323.556,1524.96,498.586,458.116,1471.11,458.393,404.287,1517.97,287.717,474.967,1459.87,92.8835,404.828,1522.11,119.206,405.673,1404.51,61.4406,553.784,1596.83,32.4336,489.068,1616.21,62.8974,495.03,1669.16,44.2504,90.1337,1498.49,522.62,219.292,1524.21,493.948,84.8103,1479.28,461.999,144.845,1516.93,300.367,79.2572,1448.78,100.397,156.725,1498.96,113.989,145.52,1386.35,63.3116,13.6289,1572.96,43.8812,72.8986,1600.83,61.9756,58.754,1660.45,42.0942
0.05,259.454,1605.23,1386.17,74.8574,1492.25,1439.8,446.967,1523.17,1415.48,139.005,1600.89,996.123,398.778,1599,1005.29,326.712,1424.08,1021.69,196.836,1419.28,1016.76,447.845,1479.44,539.029,323.523,1525.01,498.57,458.058,1471.15,458.416,404.278,1518.01,287.724,474.95,1459.87,92.9091,404.816,1522.13,119.191,405.649,1404.53,61.4629,553.787,1596.84,32.4256,489.066,1616.24,62.9125,495.041,1669.18,44.2356,90.084,1498.57,522.639,219.23,1524.31,493.987,84.7651,1479.35,462.028,144.825,1516.98,300.37,79.2621,1448.8,100.415,156.719,1498.97,113.999,145.517,1386.35,63.3329,13.6339,1572.96,43.8667,72.8232,1600.74,61.9551,58.752,1660.47,42.1002
0.06,259.446,1605.37,1386.18,75.0175,1492.53,1439.74,446.953,1523.29,1415.47,138.937,1600.96,996.143,398.72,1599.06,1005.29,326.656,1424.1,1021.73,196.74,1419.35,1016.82,447.808,1479.51,539.032,323.483,1525.09,498.565,458.008,1471.2,458.433,404.263,1518.06,287.714,474.949,1459.86,92.9288,404.815,1522.16,119.188,405.649,1404.56,61.474,553.782,1596.84,32.4229,489.072,1616.28,62.9423,495.049,1669.19,44.2147,90.0404,1498.63,522.648,219.177,1524.37,494.008,84.7254,1479.41,462.038,144.807,1517.03,300.372,79.2517,1448.81,100.435,156.712,1498.97,114,145.517,1386.36,63.3477,13.6468,1572.97,43.8579,72.8683,1600.83,61.8827,58.7567,1660.49,42.0742
0.07,259.455,1605.51,1386.19,75.023,1492.67,1439.78,446.923,1523.42,1415.46,138.858,1601.04,996.158,398.647,1599.13,1005.29,326.57,1424.18,1021.74,196.677,1419.42,1016.86,447.761,1479.58,539.032,323.456,1525.17,498.562,458.031,1471.16,458.483,404.252,1518.11,287.72,474.943,1459.89,92.9491,404.811,1522.17,119.179,405.63,1404.57,61.4983,553.784,1596.84,32.4163,489.08,1616.29,62.9284,495.053,1669.22,44.2096,89.991,1498.69,522.66,219.361,1524.18,493.848,84.6888,1479.45,462.055,144.782,1517.05,300.387,79.2471,1448.82,100.458,156.716,1498.98,114.008,145.528,1386.36,63.3623,13.6568,1572.98,43.8601,72.7982,1600.75,61.8804,58.7541,1660.52,42.0592
0.08,259.444,1605.64,1386.2,75.0153,1492.8,1439.8,446.889,1523.54,1415.44,138.786,1601.1,996.166,398.562,1599.2,1005.28,326.496,1424.24,1021.74,196.603,1419.5,1016.87,447.715,1479.66,539.031,323.416,1525.24,498.563,457.977,1471.23,458.493,404.222,1518.17,287.724,474.934,1459.89,92.9652,404.782,1522.21,119.176,405.616,1404.61,61.5063,553.776,1596.84,32.4096,489.072,1616.32,62.9235,495.054,1669.22,44.1885,89.96,1498.73,522.659,219.318,1524.23,493.88,84.6601,1479.47,462.071,144.76,1517.09,300.397,79.2671,1448.83,100.449,156.71,1498.99,114.013,145.536,1386.37,63.3654,13.648,1572.97,43.8532,72.7854,1600.75,61.8544,58.7566,1660.54,42.0426
0.09,259.439,1605.77,1386.21,75.0151,1492.92,1439.85,446.877,1523.66,1415.42,138.714,1601.16,996.169,398.479,1599.28,1005.29,326.442,1424.31,1021.73,196.539,1419.6,1016.89,447.676,1479.73,539.023,323.382,1525.3,498.551,457.925,1471.26,458.505,404.2,1518.21,287.732,474.921,1459.92,92.9706,404.775,1522.22,119.188,405.62,1404.63,61.4984,553.777,1596.83,32.4075,489.076,1616.32,62.9045,495.071,1669.23,44.168,89.9224,1498.76,522.662,219.28,1524.23,493.888,84.6213,1479.49,462.084,144.731,1517.1,300.418,79.2819,1448.83,100.441,156.708,1498.96,114.001,145.541,1386.37,63.3714,13.6541,1572.97,43.8555,72.7932,1600.82,61.7763,58.7685,1660.53,42.0266
0.1,259.428,1606.07,1386.34,75.011,1493.03,1439.88,446.836,1523.78,1415.38,138.643,1601.22,996.171,398.393,1599.36,1005.3,326.383,1424.41,1021.72,196.488,1419.68,1016.89,447.627,1479.79,539.019,323.328,1525.33,498.526,457.879,1471.32,458.525,404.163,1518.27,287.75,474.906,1459.9,92.9958,404.749,1522.28,119.185,405.613,1404.66,61.5039,553.776,1596.83,32.3974,489.083,1616.33,62.8967,495.072,1669.22,44.1519,89.8884,1498.77,522.664,219.245,1524.26,493.913,84.596,1479.5,462.088,144.707,1517.14,300.448,79.2849,1448.85,100.432,156.701,1498.97,114.002,145.569,1386.37,63.3743,13.6435,1572.97,43.8488,72.7338,1600.7,61.862,58.7735,1660.54,42.0169
0.11,259.392,1606.19,1386.32,74.9975,1493.14,1439.9,446.796,1523.89,1415.34,138.566,1601.27,996.17,398.29,1599.45,1005.3,326.317,1424.53,1021.72,196.422,1419.77,1016.89,447.596,1479.83,539.024,323.278,1525.38,498.526,457.835,1471.34,458.538,404.124,1518.32,287.758,474.898,1459.92,92.9824,404.749,1522.29,119.189,405.609,1404.68,61.5013,553.779,1596.82,32.3803,489.087,1616.35,62.9159,495.083,1669.24,44.129,89.8422,1498.79,522.66,219.196,1524.26,493.914,84.5736,1479.51,462.076,144.676,1517.16,300.448,79.2944,1448.84,100.422,156.708,1498.97,113.997,145.571,1386.37,63.3609,13.6329,1572.96,43.8369,72.7426,1600.77,61.7873,58.7647,1660.54,42.0252
0.12,259.358,1606.3,1386.31,74.9949,1493.23,1439.93,446.742,1523.99,1415.31,138.477,1601.34,996.182,398.186,1599.55,1005.3,326.271,1424.58,1021.7,196.365,1419.83,1016.89,447.553,1479.88,539.029,323.227,1525.37,498.523,457.792,1471.34,458.569,404.093,1518.36,287.773,474.914,1459.92,93.0073,404.732,1522.31,119.191,405.601,1404.69,61.5046,553.773,1596.82,32.3815,489.079,1616.36,62.9008,495.075,1669.25,44.1099,89.7781,1498.81,522.677,218.973,1524.46,494.065,84.5347,1479.52,462.082,144.639,1517.18,300.449,79.2873,1448.84,100.43,156.696,1498.97,113.996,145.58,1386.37,63.3689,13.6248,1572.95,43.8401,72.7328,1600.8,61.7373,58.7615,1660.54,42.0195
0.13,259.303,1606.27,1386.2,74.9685,1493.34,1439.97,446.729,1524.1,1415.28,138.399,1601.37,996.185,398.1,1599.61,1005.26,326.205,1424.66,1021.7,196.287,1419.87,1016.93,447.505,1479.94,539.021,323.175,1525.39,498.535,457.738,1471.38,458.584,404.057,1518.38,287.78,474.903,1459.92,93.0148,404.725,1522.33,119.199,405.589,1404.71,61.5029,553.766,1596.82,32.3756,489.063,1616.35,62.8702,495.072,1669.25,44.1038,89.7288,1498.85,522.681,219.079,1524.35,493.963,84.4851,1479.55,462.082,144.619,1517.2,300.47,79.2711,1448.84,100.439,156.692,1498.97,114.004,145.571,1386.39,63.3675,13.6088,1572.97,43.8442,72.7477,1600.82,61.7637,58.7568,1660.56,42.0296
0.14,259.259,1606.36,1386.19,74.9628,1493.42,1440.01,446.73,1524.26,1415.22,138.323,1601.39,996.191,398.014,1599.68,1005.23,326.159,1424.75,1021.7,196.235,1419.92,1016.95,447.467,1479.96,539.019,323.103,1525.42,498.532,457.693,1471.4,458.591,404.034,1518.41,287.789,474.879,1459.93,93.0178,404.716,1522.33,119.197,405.59,1404.71,61.5262,553.758,1596.83,32.3766,489.063,1616.37,62.8859,495.07,1669.26,44.088,89.6653,1498.88,522.68,219.019,1524.38,493.98,84.4505,1479.58,462.088,144.586,1517.23,300.458,79.2698,1448.85,100.443,156.69,1498.99,114.017,145.559,1386.39,63.3792,13.6141,1572.97,43.8468,72.7217,1600.76,61.8166,58.7493,1660.57,42.0027
0.15,259.242,1606.61,1386.28,74.9355,1493.51,1440.05,446.694,1524.39,1415.19,138.233,1601.41,996.205,397.92,1599.76,1005.2,326.1,1424.79,1021.73,196.191,1419.94,1016.96,447.418,1479.98,539.02,323.061,1525.41,498.53,457.649,1471.42,458.585,404.008,1518.42,287.784,474.861,1459.96,93.0183,404.708,1522.34,119.196,405.583,1404.72,61.5494,553.751,1596.82,32.3856,489.063,1616.38,62.8856,495.068,1669.28,44.0908,89.6238,1498.92,522.687,218.959,1524.45,494.005,84.4187,1479.62,462.09,144.564,1517.24,300.453,79.2562,1448.85,100.457,156.68,1498.99,114.015,145.553,1386.39,63.3937,13.6144,1572.96,43.8457,72.7339,1600.81,61.7586,58.7409,1660.57,42.0002
0.16,259.216,1606.69,1386.28,74.9196,1493.6,1440.09,446.664,1524.5,1415.17,138.153,1601.43,996.215,397.845,1599.81,1005.17,326.029,1424.83,1021.75,196.141,1419.95,1016.99,447.389,1480.02,539.021,323.007,1525.46,498.533,457.602,1471.45,458.587,403.998,1518.44,287.778,474.862,1459.95,93.059,404.704,1522.36,119.192,405.577,1404.72,61.5732,553.752,1596.83,32.3939,489.055,1616.4,62.9145,495.078,1669.29,44.1011,89.5736,1498.94,522.698,218.924,1524.48,494.019,84.3882,1479.65,462.107,144.549,1517.27,300.461,79.2574,1448.85,100.475,156.679,1499.02,114.031,145.547,1386.39,63.4142,13.6205,1572.96,43.8404,72.7351,1600.83,61.7354,58.7378,1660.6,42.0071
0.17,259.165,1606.63,1386.17,74.898,1493.69,1440.11,446.625,1524.61,1415.16,138.053,1601.45,996.245,397.774,1599.88,1005.17,325.974,1424.89,1021.75,196.088,1419.97,1017.02,447.342,1480.04,539.02,322.97,1525.47,498.533,457.557,1471.47,458.592,403.971,1518.47,287.787,474.865,1459.96,93.0601,404.697,1522.36,119.194,405.56,1404.73,61.5788,553.745,1596.83,32.3966,489.061,1616.42,62.9373,495.08,1669.29,44.0901,89.5334,1498.97,522.702,218.869,1524.51,494.037,84.3427,1479.67,462.108,144.537,1517.28,300.477,79.2189,1448.85,100.501,156.665,1499.02,114.044,145.543,1386.41,63.4206,13.6059,1572.98,43.8396,72.7201,1600.79,61.7539,58.7137,1660.59,42.0206
0.18,259.122,1606.69,1386.17,74.8742,1493.76,1440.14,446.605,1524.71,1415.14,137.969,1601.47,996.262,397.689,1599.94,1005.18,325.912,1424.94,1021.75,196.05,1419.98,1017.06,447.317,1480.06,539.024,322.937,1525.5,498.495,457.516,1471.49,458.594,403.952,1518.47,287.783,474.841,1459.96,93.066,404.686,1522.36,119.193,405.55,1404.74,61.5864,553.733,1596.83,32.3925,489.053,1616.43,62.9365,495.066,1669.3,44.0867,89.4839,1498.98,522.711,218.829,1524.53,494.053,84.3147,1479.68,462.101,144.495,1517.28,300.477,79.2355,1448.85,100.496,156.648,1499.02,114.05,145.537,1386.41,63.4195,13.6127,1572.96,43.8362,72.7061,1600.79,61.7202,58.7156,1660.59,42.0158
0.19,259.078,1606.76,1386.16,74.774,1493.75,1440.21,446.572,1524.81,1415.11,137.892,1601.48,996.267,397.62,1599.99,1005.18,325.87,1425.01,1021.77,196,1420,1017.08,447.277,1480.07,539.024,322.901,1525.55,498.495,457.488,1471.49,458.606,403.926,1518.48,287.793,474.853,1459.95,93.0933,404.677,1522.37,119.191,405.545,1404.74,61.5911,553.728,1596.83,32.3918,489.042,1616.41,62.9129,495.054,1669.31,44.0885,89.4309,1498.99,522.715,218.78,1524.52,494.061,84.2898,1479.68,462.103,144.46,1517.29,300.489,79.2164,1448.85,100.488,156.639,1499.01,114.061,145.535,1386.41,63.424,13.5917,1572.98,43.8402,72.7026,1600.82,61.6981,58.7115,1660.57,42.0322
0.2,259.053,1606.97,1386.25,74.7214,1493.81,1440.23,446.544,1524.9,1415.1,137.826,1601.5,996.278,397.545,1600.04,1005.18,325.835,1425.05,1021.79,195.95,1420.01,1017.11,447.239,1480.09,539.038,322.885,1525.53,498.484,457.461,1471.51,458.623,403.908,1518.49,287.798,474.839,1459.95,93.0918,404.67,1522.38,119.206,405.542,1404.73,61.6039,553.729,1596.84,32.4023,489.039,1616.43,62.9337,495.061,1669.3,44.0916,89.389,1498.97,522.719,218.745,1524.51,494.074,84.2527,1479.68,462.107,144.434,1517.28,300.496,79.2067,1448.85,100.491,156.625,1499.03,114.076,145.534,1386.41,63.4219,13.5895,1572.96,43.8486,72.6748,1600.77,61.7753,58.7108,1660.57,42.0274
0.21,258.993,1606.89,1386.13,74.79,1493.94,1440.19,446.461,1524.95,1415.08,137.755,1601.53,996.272,397.499,1600.07,1005.17,325.793,1425.13,1021.79,195.929,1420.06,1017.12,447.203,1480.09,539.038,322.863,1525.55,498.47,457.438,1471.53,458.632,403.888,1518.51,287.803,474.84,1459.94,93.0902,404.665,1522.38,119.201,405.541,1404.75,61.5802,553.737,1596.83,32.3993,489.048,1616.42,62.9209,495.059,1669.29,44.0728,89.3583,1498.95,522.716,218.729,1524.5,494.061,84.2217,1479.67,462.106,144.413,1517.28,300.511,79.2183,1448.86,100.47,156.614,1499.01,114.074,145.549,1386.39,63.4172,13.5851,1572.97,43.8341,72.6862,1600.8,61.7325,58.7091,1660.56,42.0178
0.22,258.972,1607.09,1386.21,74.7419,1494,1440.2,446.42,1525.02,1415.04,137.69,1601.56,996.274,397.442,1600.1,1005.17,325.742,1425.22,1021.77,195.869,1420.08,1017.14,447.182,1480.11,539.03,322.839,1525.57,498.462,457.416,1471.56,458.63,403.876,1518.52,287.783,474.831,1459.98,93.0876,404.671,1522.38,119.198,405.548,1404.77,61.5609,553.737,1596.83,32.3799,489.05,1616.42,62.9145,495.07,1669.29,44.0576,89.3458,1498.94,522.709,218.726,1524.44,494.031,84.1957,1479.67,462.104,144.4,1517.26,300.504,79.2269,1448.85,100.447,156.628,1498.99,114.051,145.557,1386.39,63.3939,13.5788,1572.97,43.8242,72.6856,1600.82,61.7102,58.7284,1660.56,42.003
0.23,258.923,1606.99,1386.08,74.7233,1494.03,1440.2,446.397,1525.07,1415.01,137.655,1601.56,996.258,397.413,1600.11,1005.16,325.7,1425.24,1021.77,195.827,1420.11,1017.14,447.163,1480.13,539.014,322.813,1525.59,498.461,457.409,1471.57,458.619,403.876,1518.53,287.774,474.837,1459.99,93.07,404.658,1522.4,119.184,405.561,1404.74,61.5638,553.754,1596.82,32.3783,489.068,1616.39,62.8695,495.071,1669.28,44.0495,89.3236,1498.94,522.704,218.729,1524.42,494.022,84.1763,1479.65,462.094,144.394,1517.24,300.498,79.2395,1448.85,100.426,156.638,1498.98,114.037,145.559,1386.4,63.3759,13.5873,1572.97,43.825,72.696,1600.83,61.6972,58.7307,1660.55,42.0019
0.24,258.905,1607.04,1386.06,74.6807,1494.07,1440.21,446.362,1525.14,1414.97,137.604,1601.58,996.265,397.375,1600.13,1005.14,325.639,1425.28,1021.77,195.766,1420.12,1017.16,447.145,1480.15,539.008,322.79,1525.63,498.458,457.388,1471.6,458.609,403.867,1518.53,287.77,474.844,1460,93.0578,404.665,1522.4,119.179,405.565,1404.75,61.5566,553.761,1596.82,32.3832,489.078,1616.4,62.869,495.084,1669.27,44.0364,89.3137,1498.92,522.704,218.715,1524.41,494.008,84.1575,1479.65,462.091,144.397,1517.23,300.495,79.2234,1448.84,100.428,156.651,1498.98,114.024,145.566,1386.4,63.3807,13.5878,1572.97,43.8024,72.6894,1600.79,61.7304,58.7467,1660.56,41.984
0.25,258.862,1607.08,1386.02,74.6459,1494.11,1440.21,446.338,1525.18,1414.94,137.573,1601.6,996.258,397.339,1600.14,1005.14,325.576,1425.29,1021.74,195.71,1420.12,1017.16,447.12,1480.16,539,322.776,1525.63,498.461,457.33,1471.66,458.587,403.868,1518.52,287.756,474.839,1459.99,93.0679,404.666,1522.4,119.175,405.572,1404.76,61.5516,553.767,1596.83,32.3797,489.073,1616.4,62.8758,495.088,1669.26,44.0324,89.2982,1498.92,522.693,218.719,1524.4,494.013,84.138,1479.64,462.079,144.395,1517.23,300.487,79.2305,1448.83,100.427,156.658,1498.97,114.027,145.566,1386.4,63.3657,13.5886,1572.97,43.8095,72.6816,1600.77,61.7418,58.7494,1660.56,41.9841
0.26,258.825,1607.11,1386,74.6329,1494.17,1440.17,446.309,1525.23,1414.92,137.532,1601.61,996.242,397.311,1600.14,1005.11,325.522,1425.3,1021.7,195.632,1420.13,1017.17,447.084,1480.16,539.001,322.748,1525.66,498.438,457.187,1471.45,458.706,403.852,1518.54,287.752,474.844,1459.99,93.0807,404.669,1522.41,119.173,405.561,1404.75,61.5586,553.76,1596.84,32.3916,489.067,1616.39,62.8577,495.084,1669.28,44.0375,89.2851,1498.92,522.684,218.697,1524.39,493.999,84.1221,1479.64,462.081,144.389,1517.22,300.468,79.2223,1448.84,100.424,156.66,1498.97,114.012,145.556,1386.39,63.3805,13.5937,1572.98,43.8136,72.6793,1600.79,61.7015,58.7445,1660.57,41.983
0.27,258.79,1607.15,1385.95,74.6046,1494.2,1440.16,446.276,1525.28,1414.91,137.502,1601.63,996.228,397.281,1600.14,1005.09,325.48,1425.3,1021.69,195.588,1420.12,1017.17,447.047,1480.17,539.004,322.727,1525.68,498.416,457.284,1471.55,458.65,403.839,1518.55,287.744,474.824,1460.01,93.0719,404.664,1522.4,119.156,405.553,1404.75,61.5841,553.759,1596.84,32.3984,489.061,1616.42,62.8977,495.084,1669.29,44.0531,89.2651,1498.95,522.69,218.668,1524.44,494,84.1109,1479.66,462.083,144.377,1517.22,300.457,79.212,1448.85,100.439,156.645,1498.99,114.026,145.542,1386.39,63.3974,13.6049,1572.97,43.8255,72.6765,1600.8,61.6718,58.7415,1660.56,41.9972
0.28,258.749,1607.18,1385.92,74.5706,1494.24,1440.16,446.238,1525.32,1414.9,137.468,1601.65,996.22,397.258,1600.16,1005.09,325.413,1425.26,1021.66,195.546,1420.12,1017.18,447.015,1480.18,538.992,322.714,1525.68,498.401,457.133,1471.44,458.725,403.822,1518.55,287.751,474.81,1459.99,93.0972,404.654,1522.42,119.156,405.532,1404.75,61.6035,553.735,1596.85,32.4108,489.051,1616.43,62.9107,495.068,1669.31,44.0757,89.2329,1498.96,522.692,218.639,1524.46,494.009,84.0859,1479.67,462.081,144.367,1517.23,300.455,79.1981,1448.84,100.457,156.627,1499.01,114.053,145.535,1386.38,63.4162,13.5978,1572.98,43.8161,72.6584,1600.8,61.6621,58.7249,1660.57,42.0174
0.29,258.712,1607.2,1385.89,74.4437,1494.19,1440.2,446.224,1525.36,1414.9,137.449,1601.66,996.215,397.23,1600.17,1005.1,325.367,1425.24,1021.63,195.503,1420.12,1017.18,447.005,1480.16,539.003,322.696,1525.66,498.392,457.11,1471.42,458.734,403.803,1518.54,287.747,474.811,1460,93.1195,404.647,1522.4,119.163,405.528,1404.74,61.6144,553.724,1596.86,32.4231,489.041,1616.41,62.9144,495.056,1669.33,44.1078,89.2195,1498.98,522.682,218.614,1524.47,494.027,84.072,1479.68,462.075,144.358,1517.23,300.463,79.1837,1448.84,100.461,156.616,1499,114.055,145.519,1386.37,63.4337,13.5883,1572.98,43.8198,72.6592,1600.8,61.6723,58.7186,1660.56,42.033
0.3,258.698,1607.36,1385.96,74.4201,1494.22,1440.18,446.186,1525.38,1414.88,137.428,1601.69,996.22,397.207,1600.17,1005.09,325.334,1425.25,1021.59,195.47,1420.12,1017.17,446.989,1480.15,539.011,322.681,1525.65,498.383,457.132,1471.37,458.767,403.795,1518.54,287.757,474.806,1459.97,93.1264,404.643,1522.4,119.183,405.518,1404.77,61.612,553.716,1596.83,32.4247,489.037,1616.41,62.9124,495.065,1669.31,44.1086,89.2007,1498.99,522.686,218.6,1524.46,494.031,84.0465,1479.69,462.08,144.345,1517.22,300.473,79.1881,1448.85,100.46,156.606,1499,114.069,145.516,1386.37,63.4389,13.5912,1572.98,43.8406,72.6461,1600.79,61.6839,58.7111,1660.56,42.0478
0.31,258.66,1607.38,1385.94,74.3822,1494.23,1440.18,446.15,1525.39,1414.88,137.406,1601.7,996.215,397.202,1600.18,1005.1,325.312,1425.23,1021.56,195.438,1420.14,1017.16,446.977,1480.15,539.002,322.678,1525.65,498.383,457.09,1471.41,458.737,403.788,1518.54,287.759,474.804,1459.99,93.1037,404.643,1522.4,119.174,405.523,1404.74,61.6128,553.726,1596.85,32.4413,489.03,1616.43,62.944,495.049,1669.32,44.1151,89.1871,1498.98,522.691,218.595,1524.44,494.034,84.0436,1479.68,462.071,144.337,1517.22,300.482,79.1719,1448.83,100.464,156.602,1499,114.072,145.518,1386.36,63.4192,13.5757,1572.96,43.8475,72.6405,1600.78,61.6837,58.707,1660.55,42.0504
0.32,258.628,1607.38,1385.91,74.3513,1494.25,1440.17,446.162,1525.4,1414.86,137.392,1601.72,996.21,397.192,1600.18,1005.1,325.3,1425.26,1021.54,195.433,1420.17,1017.14,446.975,1480.16,538.991,322.677,1525.65,498.386,457.136,1471.37,458.747,403.782,1518.54,287.76,474.815,1459.97,93.1023,404.638,1522.39,119.169,405.535,1404.73,61.6086,553.718,1596.84,32.4264,489.036,1616.41,62.9325,495.056,1669.31,44.1233,89.176,1498.98,522.683,218.599,1524.41,494.025,84.0457,1479.69,462.067,144.338,1517.2,300.483,79.1655,1448.82,100.46,156.597,1499,114.072,145.512,1386.36,63.4174,13.5732,1572.97,43.8503,72.6365,1600.78,61.6884,58.7148,1660.56,42.0543
0.33,258.598,1607.38,1385.89,74.3165,1494.28,1440.15,446.13,1525.39,1414.84,137.374,1601.72,996.215,397.197,1600.16,1005.07,325.281,1425.28,1021.5,195.413,1420.19,1017.12,446.988,1480.14,538.977,322.676,1525.65,498.409,457.09,1471.42,458.704,403.773,1518.52,287.764,474.808,1459.97,93.0764,404.643,1522.36,119.169,405.546,1404.73,61.578,553.727,1596.83,32.4198,489.04,1616.39,62.9112,495.057,1669.28,44.1057,89.1873,1498.97,522.665,218.602,1524.38,494.022,84.0409,1479.68,462.059,144.339,1517.19,300.48,79.1493,1448.86,100.443,156.591,1498.98,114.053,145.52,1386.36,63.4031,13.5696,1572.97,43.8362,72.6408,1600.79,61.676,58.7256,1660.55,42.0293
0.34,258.577,1607.38,1385.87,74.2621,1494.27,1440.14,446.111,1525.38,1414.83,137.37,1601.74,996.2,397.206,1600.15,1005.08,325.271,1425.26,1021.48,195.401,1420.21,1017.09,446.99,1480.15,538.955,322.665,1525.64,498.403,457.153,1471.39,458.713,403.775,1518.52,287.745,474.832,1459.96,93.0804,404.647,1522.36,119.161,405.556,1404.74,61.553,553.743,1596.83,32.4151,489.053,1616.37,62.8783,495.067,1669.28,44.0973,89.1904,1498.96,522.649,218.604,1524.37,494.01,84.0525,1479.66,462.041,144.337,1517.19,300.473,79.1665,1448.84,100.437,156.607,1498.97,114.044,145.523,1386.36,63.3815,13.5771,1572.98,43.8272,72.642,1600.77,61.6695,58.7267,1660.55,42.012
0.35,258.554,1607.37,1385.85,74.2146,1494.28,1440.13,446.082,1525.36,1414.8,137.381,1601.74,996.191,397.205,1600.15,1005.08,325.267,1425.29,1021.46,195.394,1420.24,1017.07,447.008,1480.16,538.923,322.673,1525.63,498.388,457.118,1471.44,458.663,403.789,1518.53,287.734,474.844,1459.95,93.0666,404.645,1522.36,119.158,405.558,1404.73,61.5266,553.75,1596.82,32.3956,489.062,1616.38,62.8855,495.086,1669.26,44.0645,89.1958,1498.95,522.642,218.624,1524.33,494.003,84.0422,1479.66,462.037,144.345,1517.17,300.472,79.1644,1448.85,100.417,156.624,1498.96,114.021,145.545,1386.37,63.3504,13.578,1572.97,43.8183,72.6442,1600.77,61.6732,58.7368,1660.54,41.9989
0.36,258.531,1607.38,1385.82,74.2984,1494.39,1440.05,446.07,1525.36,1414.79,137.38,1601.75,996.19,397.199,1600.15,1005.08,325.25,1425.29,1021.45,195.373,1420.25,1017.05,447.009,1480.18,538.903,322.679,1525.65,498.384,457.261,1471.55,458.586,403.804,1518.53,287.728,474.831,1459.98,93.0412,404.648,1522.39,119.153,405.572,1404.74,61.5111,553.762,1596.83,32.4007,489.076,1616.37,62.8631,495.086,1669.27,44.0631,89.1947,1498.96,522.644,218.636,1524.33,493.996,84.0481,1479.66,462.037,144.358,1517.18,300.45,79.1997,1448.82,100.399,156.633,1498.95,114.016,145.547,1386.37,63.334,13.58,1572.97,43.8224,72.6497,1600.77,61.6619,58.7407,1660.54,41.9938
0.37,258.511,1607.38,1385.81,74.2581,1494.4,1440.02,446.006,1525.33,1414.79,137.385,1601.75,996.178,397.202,1600.14,1005.09,325.247,1425.31,1021.46,195.373,1420.24,1017.03,447,1480.19,538.916,322.68,1525.66,498.382,457.254,1471.56,458.587,403.81,1518.52,287.712,474.825,1460,93.035,404.643,1522.39,119.16,405.575,1404.75,61.5088,553.762,1596.82,32.3911,489.088,1616.38,62.8888,495.091,1669.28,44.0837,89.1956,1498.97,522.641,218.648,1524.34,493.993,84.0504,1479.68,462.033,144.365,1517.16,300.46,79.1841,1448.81,100.407,156.64,1498.97,114.024,145.55,1386.37,63.3374,13.588,1572.96,43.8194,72.6452,1600.77,61.6584,58.7428,1660.53,42.008
0.38,258.471,1607.37,1385.8,74.2293,1494.38,1440,445.971,1525.32,1414.8,137.392,1601.75,996.167,397.193,1600.13,1005.1,325.228,1425.28,1021.46,195.344,1420.24,1017.02,447.004,1480.18,538.925,322.689,1525.63,498.408,457.18,1471.39,458.702,403.806,1518.51,287.73,474.817,1459.98,93.0416,404.643,1522.39,119.18,405.565,1404.74,61.5204,553.757,1596.83,32.4012,489.083,1616.38,62.8928,495.081,1669.28,44.0832,89.2047,1498.98,522.627,218.662,1524.33,493.987,84.0598,1479.69,462.025,144.364,1517.17,300.464,79.1921,1448.82,100.405,156.637,1498.97,114.039,145.538,1386.37,63.3343,13.5424,1572.8,43.9679,72.6398,1600.77,61.6629,58.7353,1660.52,42.0107
0.39,258.433,1607.37,1385.79,74.1073,1494.3,1440.02,445.916,1525.31,1414.82,137.398,1601.73,996.162,397.19,1600.13,1005.12,325.218,1425.28,1021.46,195.339,1420.23,1017.02,447.005,1480.18,538.931,322.694,1525.64,498.413,457.246,1471.54,458.606,403.797,1518.52,287.742,474.827,1459.98,93.06,404.643,1522.39,119.181,405.559,1404.73,61.5433,553.746,1596.82,32.4049,489.072,1616.4,62.9182,495.083,1669.27,44.0989,89.2051,1498.98,522.638,218.659,1524.36,493.989,84.0684,1479.7,462.023,144.382,1517.17,300.459,79.2011,1448.82,100.407,156.643,1498.95,114.041,145.539,1386.35,63.3425,13.5317,1572.8,43.9648,72.645,1600.76,61.674,58.7303,1660.53,42.0325
0.4,258.405,1607.37,1385.78,74.0946,1494.31,1439.98,445.982,1525.43,1414.86,137.391,1601.73,996.149,397.194,1600.12,1005.13,325.213,1425.23,1021.49,195.329,1420.22,1017.01,447.013,1480.17,538.942,322.701,1525.64,498.397,457.26,1471.53,458.623,403.798,1518.5,287.744,474.819,1460,93.0524,404.646,1522.37,119.183,405.549,1404.73,61.5625,553.742,1596.83,32.4228,489.063,1616.41,62.9548,495.071,1669.3,44.124,89.224,1498.99,522.617,218.661,1524.38,493.993,84.0742,1479.71,462.019,144.384,1517.17,300.439,79.1905,1448.82,100.423,156.634,1498.95,114.045,145.528,1386.35,63.3514,13.5337,1572.82,43.9441,72.6431,1600.76,61.6828,58.7267,1660.53,42.0395
0.41,258.375,1607.37,1385.76,74.0692,1494.3,1439.94,445.836,1525.31,1414.84,137.383,1601.73,996.142,397.202,1600.11,1005.13,325.208,1425.2,1021.5,195.325,1420.18,1017.03,447.027,1480.17,538.954,322.707,1525.63,498.396,457.258,1471.53,458.639,403.803,1518.5,287.741,474.799,1460,93.0593,404.652,1522.39,119.179,405.541,1404.72,61.5889,553.73,1596.83,32.4267,489.052,1616.41,62.9413,495.069,1669.31,44.1375,89.2122,1498.99,522.638,218.653,1524.42,493.993,84.0699,1479.72,462.023,144.388,1517.17,300.427,79.1738,1448.82,100.446,156.624,1498.97,114.051,145.53,1386.33,63.3837,13.5228,1572.82,43.9405,72.6501,1600.76,61.6825,58.7282,1660.54,42.0504
0.42,258.35,1607.36,1385.73,74.0451,1494.27,1439.93,445.8,1525.32,1414.85,137.381,1601.71,996.137,397.225,1600.09,1005.13,325.22,1425.18,1021.5,195.342,1420.17,1017.02,447.046,1480.14,538.964,322.712,1525.64,498.391,457.272,1471.51,458.631,403.816,1518.5,287.734,474.823,1459.99,93.0942,404.654,1522.39,119.17,405.544,1404.72,61.6038,553.732,1596.84,32.4358,489.052,1616.4,62.9258,495.066,1669.31,44.1404,89.2101,1499,522.636,218.654,1524.41,493.982,84.0855,1479.72,462.022,144.396,1517.16,300.407,79.1839,1448.8,100.441,156.625,1498.97,114.045,145.52,1386.34,63.3744,13.5269,1572.84,43.9245,72.659,1600.76,61.6854,58.731,1660.53,42.0724
0.43,258.315,1607.35,1385.7,74.0059,1494.23,1439.9,445.768,1525.32,1414.84,137.389,1601.7,996.13,397.23,1600.06,1005.12,325.22,1425.19,1021.48,195.359,1420.17,1016.99,447.047,1480.14,538.946,322.721,1525.63,498.375,457.268,1471.5,458.61,403.818,1518.49,287.718,474.834,1459.97,93.0821,404.661,1522.38,119.172,405.549,1404.73,61.5804,553.737,1596.84,32.4114,489.049,1616.41,62.9296,495.065,1669.29,44.1318,89.2397,1498.98,522.611,218.656,1524.38,493.96,84.0864,1479.7,462.018,144.413,1517.15,300.389,79.1487,1448.81,100.45,156.629,1498.95,114.029,145.518,1386.34,63.3646,13.5229,1572.84,43.9046,72.6593,1600.76,61.6817,58.746,1660.53,42.063
0.44,258.286,1607.33,1385.68,73.9649,1494.2,1439.86,445.739,1525.32,1414.84,137.39,1601.7,996.121,397.242,1600.04,1005.12,325.244,1425.16,1021.44,195.36,1420.16,1016.98,447.05,1480.13,538.94,322.726,1525.63,498.377,457.289,1471.5,458.601,403.822,1518.48,287.699,474.833,1459.96,93.0727,404.675,1522.38,119.161,405.547,1404.72,61.5828,553.738,1596.83,32.4158,489.056,1616.41,62.9236,495.068,1669.29,44.128,89.247,1498.99,522.604,218.68,1524.36,493.954,84.0913,1479.7,462.004,144.409,1517.13,300.372,79.1838,1448.8,100.427,156.636,1498.95,114.024,145.52,1386.31,63.3778,13.52,1572.83,43.9048,72.6673,1600.75,61.6874,58.749,1660.53,42.0601
0.45,258.261,1607.31,1385.66,73.9389,1494.15,1439.82,445.719,1525.31,1414.84,137.398,1601.67,996.124,397.259,1600.02,1005.12,325.248,1425.14,1021.41,195.367,1420.13,1016.97,447.06,1480.12,538.931,322.739,1525.63,498.386,457.223,1471.33,458.7,403.83,1518.46,287.704,474.838,1459.98,93.0474,404.671,1522.37,119.162,405.561,1404.72,61.5632,553.748,1596.83,32.4217,489.059,1616.39,62.9079,495.078,1669.28,44.1237,89.2614,1498.97,522.594,218.685,1524.33,493.942,84.0998,1479.7,462.001,144.422,1517.13,300.377,79.1627,1448.81,100.421,156.646,1498.94,114.018,145.515,1386.33,63.3546,13.5119,1572.82,43.8824,72.6692,1600.75,61.6789,58.7632,1660.53,42.0552
0.46,258.247,1607.3,1385.65,73.9092,1494.1,1439.77,445.7,1525.29,1414.83,137.393,1601.65,996.119,397.269,1599.98,1005.11,325.255,1425.14,1021.37,195.376,1420.14,1016.94,447.07,1480.1,538.927,322.737,1525.63,498.383,457.303,1471.48,458.581,403.827,1518.45,287.7,474.844,1459.97,93.0434,404.666,1522.35,119.157,405.568,1404.72,61.5438,553.752,1596.83,32.4047,489.053,1616.38,62.911,495.076,1669.28,44.1143,89.2717,1498.95,522.571,218.702,1524.32,493.937,84.1176,1479.67,461.977,144.424,1517.12,300.368,79.1929,1448.78,100.388,156.647,1498.92,114.003,145.519,1386.33,63.3416,13.5055,1572.82,43.8839,72.672,1600.75,61.6821,58.767,1660.52,42.0616
0.47,258.22,1607.27,1385.63,74.02,1494.19,1439.66,445.675,1525.27,1414.83,137.396,1601.64,996.108,397.279,1599.97,1005.1,325.257,1425.14,1021.34,195.389,1420.13,1016.91,447.063,1480.1,538.918,322.737,1525.63,498.368,457.236,1471.31,458.676,403.821,1518.46,287.699,474.847,1459.96,93.0279,404.662,1522.35,119.14,405.574,1404.72,61.5237,553.742,1596.83,32.3886,489.057,1616.38,62.9119,495.073,1669.26,44.1038,89.2843,1498.94,522.549,218.706,1524.32,493.916,84.1233,1479.67,461.951,144.434,1517.12,300.375,79.1871,1448.78,100.383,156.653,1498.91,113.985,145.527,1386.33,63.3108,13.4944,1572.8,43.8715,72.6639,1600.74,61.6776,58.7647,1660.51,42.0523
0.48,258.213,1607.27,1385.63,74.0266,1494.16,1439.59,445.662,1525.23,1414.83,137.409,1601.61,996.105,397.292,1599.93,1005.07,325.262,1425.14,1021.31,195.404,1420.12,1016.88,447.064,1480.08,538.909,322.739,1525.62,498.37,457.318,1471.45,458.574,403.813,1518.46,287.703,474.827,1459.93,93.0218,404.652,1522.35,119.156,405.569,1404.71,61.4947,553.739,1596.82,32.3939,489.063,1616.36,62.9011,495.064,1669.25,44.1116,89.2924,1498.93,522.534,218.714,1524.31,493.91,84.1237,1479.65,461.937,144.428,1517.13,300.373,79.2173,1448.78,100.356,156.66,1498.91,113.988,145.529,1386.33,63.2993,13.4895,1572.81,43.8786,72.6581,1600.74,61.6869,58.7986,1660.49,42.1251
0.49,258.201,1607.25,1385.61,74.01,1494.13,1439.55,445.653,1525.21,1414.83,137.409,1601.58,996.106,397.294,1599.92,1005.12,325.27,1425.1,1021.31,195.405,1420.08,1016.87,447.068,1480.07,538.917,322.732,1525.58,498.378,457.313,1471.45,458.573,403.819,1518.44,287.712,474.826,1459.94,93.0154,404.661,1522.33,119.164,405.566,1404.71,61.4926,553.735,1596.82,32.4102,489.062,1616.37,62.9192,495.063,1669.25,44.1283,89.2846,1498.94,522.533,218.712,1524.32,493.919,84.1139,1479.67,461.935,144.411,1517.13,300.378,79.1926,1448.78,100.368,156.667,1498.9,113.997,145.518,1386.33,63.3035,13.4678,1572.78,43.8702,72.6467,1600.73,61.6898,58.8128,1660.46,42.1897
0.5,258.197,1607.24,1385.6,74.0024,1494.11,1439.51,445.643,1525.18,1414.83,137.403,1601.55,996.12,397.3,1599.9,1005.13,325.27,1425.06,1021.28,195.411,1420.05,1016.85,447.062,1480.06,538.909,322.741,1525.57,498.36,457.315,1471.44,458.563,403.813,1518.43,287.711,474.832,1459.93,93.0228,404.656,1522.32,119.161,405.568,1404.71,61.4872,553.735,1596.81,32.4177,489.051,1616.37,62.9308,495.053,1669.25,44.1446,89.2819,1498.95,522.529,218.701,1524.33,493.927,84.1077,1479.67,461.927,144.409,1517.13,300.393,79.1853,1448.77,100.376,156.652,1498.9,114.006,145.504,1386.32,63.3083,13.4597,1572.75,43.8975,72.6396,1600.72,61.6992,58.8101,1660.44,42.2275
0.51,258.217,1607.22,1385.58,74.0005,1494.1,1439.47,445.645,1525.15,1414.82,137.398,1601.52,996.123,397.292,1599.88,1005.14,325.271,1425.03,1021.27,195.413,1420.02,1016.84,447.069,1480.05,538.905,322.745,1525.59,498.371,457.334,1471.42,458.553,403.812,1518.41,287.705,474.817,1459.93,93.0062,404.657,1522.3,119.166,405.562,1404.7,61.4873,553.734,1596.8,32.4217,489.158,1616.61,63.3102,495.052,1669.25,44.1579,89.2661,1498.96,522.532,218.698,1524.34,493.926,84.0994,1479.68,461.912,144.405,1517.14,300.383,79.2096,1448.74,100.358,156.656,1498.9,114.007,145.51,1386.32,63.2961,13.4629,1572.75,43.9022,72.6483,1600.72,61.71,58.808,1660.43,42.2421
0.52,258.229,1607.21,1385.55,74.0086,1494.08,1439.46,445.654,1525.13,1414.81,137.404,1601.48,996.114,397.301,1599.85,1005.12,325.268,1424.99,1021.27,195.4,1419.99,1016.85,447.082,1480.06,538.905,322.746,1525.55,498.379,457.337,1471.43,458.552,403.811,1518.39,287.683,474.839,1459.93,93.0149,404.667,1522.31,119.165,405.563,1404.7,61.4932,553.732,1596.82,32.4297,489.057,1616.38,62.9564,495.053,1669.25,44.168,89.2645,1498.97,522.526,218.677,1524.37,493.925,84.0843,1479.69,461.916,144.416,1517.13,300.357,79.232,1448.77,100.364,156.657,1498.92,114.009,145.51,1386.32,63.2957,13.4602,1572.75,43.908,72.6565,1600.71,61.7084,58.806,1660.44,42.2692
0.53,258.241,1607.2,1385.54,73.928,1494.01,1439.48,445.673,1525.12,1414.79,137.397,1601.44,996.123,397.303,1599.81,1005.1,325.27,1424.98,1021.26,195.386,1419.95,1016.84,447.08,1480.06,538.894,322.745,1525.55,498.371,457.349,1471.43,458.54,403.823,1518.39,287.676,474.824,1459.95,93.0048,404.673,1522.3,119.146,405.566,1404.69,61.5011,553.73,1596.81,32.4262,489.057,1616.41,63.0126,495.049,1669.26,44.174,89.253,1498.98,522.527,218.671,1524.37,493.934,84.089,1479.7,461.914,144.423,1517.13,300.34,79.1756,1448.77,100.38,156.654,1498.89,113.999,145.505,1386.32,63.2978,13.4712,1572.75,43.8943,72.6636,1600.72,61.7003,58.8072,1660.44,42.2917
0.54,258.258,1607.18,1385.5,74.0313,1494.08,1439.43,445.675,1525.11,1414.76,137.391,1601.41,996.122,397.313,1599.77,1005.1,325.251,1424.92,1021.25,195.375,1419.91,1016.82,447.097,1480.06,538.903,322.75,1525.58,498.374,457.356,1471.46,458.522,403.833,1518.37,287.665,474.837,1459.93,93.0275,404.667,1522.3,119.152,405.57,1404.69,61.5083,553.732,1596.82,32.4349,489.063,1616.42,63.0441,495.05,1669.25,44.1786,89.2556,1499,522.519,218.665,1524.39,493.941,84.0769,1479.71,461.918,144.435,1517.12,300.333,79.1798,1448.77,100.401,156.659,1498.92,114.009,145.508,1386.32,63.2925,13.4673,1572.75,43.9068,72.666,1600.73,61.7127,58.8158,1660.43,42.2935
0.55,258.272,1607.17,1385.46,73.9489,1494.02,1439.49,445.692,1525.1,1414.73,137.39,1601.38,996.126,397.317,1599.73,1005.1,325.264,1424.87,1021.23,195.369,1419.89,1016.82,447.097,1480.06,538.889,322.765,1525.56,498.365,457.364,1471.46,458.512,403.831,1518.37,287.662,474.847,1459.93,93.011,404.673,1522.29,119.145,405.577,1404.67,61.52,553.737,1596.81,32.4342,489.06,1616.41,63.0249,495.051,1669.27,44.1743,89.2632,1498.99,522.517,218.67,1524.38,493.929,84.0741,1479.72,461.91,144.443,1517.11,300.315,79.209,1448.76,100.377,156.661,1498.91,114.002,145.503,1386.31,63.2983,13.4825,1572.75,43.9121,72.6762,1600.72,61.713,58.8172,1660.43,42.2925
0.56,258.291,1607.17,1385.42,74.061,1494.1,1439.44,445.695,1525.08,1414.69,137.393,1601.35,996.108,397.319,1599.7,1005.09,325.237,1424.86,1021.19,195.356,1419.85,1016.79,447.102,1480.07,538.863,322.758,1525.58,498.362,457.357,1471.46,458.493,403.829,1518.37,287.648,474.857,1459.91,93.0219,404.679,1522.29,119.141,405.587,1404.67,61.5054,553.729,1596.81,32.4314,489.062,1616.42,63.0218,495.05,1669.26,44.1623,89.2516,1498.99,522.499,218.654,1524.4,493.903,84.0616,1479.72,461.897,144.444,1517.11,300.299,79.2096,1448.76,100.385,156.664,1498.9,113.993,145.508,1386.31,63.2844,13.4732,1572.76,43.9044,72.6863,1600.73,61.7348,58.8175,1660.43,42.2836
0.57,258.322,1607.17,1385.39,74.0938,1494.13,1439.42,445.728,1525.08,1414.64,137.39,1601.32,996.097,397.325,1599.67,1005.09,325.244,1424.83,1021.14,195.341,1419.82,1016.77,447.111,1480.05,538.831,322.776,1525.54,498.344,457.38,1471.45,458.471,403.836,1518.36,287.635,474.868,1459.91,93.0093,404.671,1522.29,119.125,405.59,1404.67,61.4833,553.73,1596.81,32.4158,489.078,1616.4,63.0115,495.058,1669.24,44.1793,89.2597,1498.98,522.494,218.67,1524.39,493.893,84.0618,1479.7,461.879,144.441,1517.09,300.291,79.2138,1448.76,100.365,156.658,1498.88,113.974,145.514,1386.3,63.2834,13.4809,1572.76,43.9037,72.6834,1600.71,61.7135,58.8333,1660.44,42.2693
0.58,258.337,1607.19,1385.35,74.1212,1494.18,1439.43,445.745,1525.07,1414.59,137.39,1601.3,996.095,397.327,1599.6,1005.04,325.248,1424.76,1021.07,195.349,1419.82,1016.74,447.112,1480.04,538.816,322.789,1525.5,498.343,457.398,1471.43,458.456,403.829,1518.34,287.635,474.881,1459.88,92.9904,404.668,1522.27,119.121,405.609,1404.67,61.4487,553.748,1596.8,32.4212,489.074,1616.39,63.0054,495.057,1669.24,44.1775,89.2654,1498.96,522.478,218.665,1524.34,493.858,84.0622,1479.69,461.861,144.443,1517.08,300.294,79.1906,1448.77,100.365,156.665,1498.87,113.969,145.531,1386.28,63.2771,13.4756,1572.75,43.9044,72.6804,1600.71,61.7324,58.8489,1660.44,42.2734
0.59,258.359,1607.19,1385.32,74.1379,1494.21,1439.43,445.775,1525.05,1414.53,137.389,1601.26,996.082,397.34,1599.57,1005.02,325.245,1424.76,1020.99,195.352,1419.8,1016.71,447.127,1480.01,538.803,322.782,1525.5,498.332,457.416,1471.41,458.427,403.835,1518.33,287.64,474.887,1459.88,92.9698,404.669,1522.27,119.133,405.616,1404.68,61.4103,553.752,1596.8,32.4039,489.081,1616.38,63.0028,495.071,1669.23,44.178,89.275,1498.94,522.452,218.689,1524.31,493.837,84.0675,1479.68,461.837,144.446,1517.07,300.3,79.2207,1448.77,100.33,156.675,1498.85,113.955,145.539,1386.29,63.2568,13.4702,1572.72,43.902,72.6849,1600.71,61.7334,58.8503,1660.42,42.2649
0.6,258.368,1607.18,1385.28,74.1452,1494.26,1439.45,445.786,1525.05,1414.49,137.392,1601.25,996.073,397.339,1599.53,1004.99,325.24,1424.72,1020.91,195.331,1419.8,1016.7,447.142,1479.98,538.783,322.787,1525.48,498.31,457.423,1471.41,458.42,403.832,1518.31,287.629,474.873,1459.89,92.9515,404.67,1522.27,119.12,405.619,1404.67,61.4029,553.755,1596.81,32.3891,489.082,1616.36,62.9653,495.069,1669.23,44.1441,89.2769,1498.93,522.45,218.68,1524.3,493.833,84.0624,1479.66,461.824,144.444,1517.05,300.297,79.2201,1448.75,100.325,156.679,1498.85,113.949,145.528,1386.31,63.2306,13.466,1572.73,43.8943,72.6751,1600.7,61.7234,58.8575,1660.41,42.2585
0.61,258.371,1607.17,1385.23,74.1379,1494.29,1439.47,445.792,1525.03,1414.45,137.378,1601.24,996.082,397.347,1599.52,1004.98,325.24,1424.7,1020.85,195.328,1419.78,1016.69,447.142,1479.96,538.756,322.782,1525.42,498.31,457.425,1471.39,458.41,403.839,1518.28,287.622,474.872,1459.89,92.9573,404.673,1522.26,119.124,405.617,1404.67,61.3961,553.751,1596.81,32.398,489.079,1616.34,62.9369,495.069,1669.21,44.1646,89.273,1498.9,522.447,218.699,1524.26,493.833,84.0703,1479.62,461.826,144.445,1517.05,300.291,79.2196,1448.75,100.315,156.676,1498.84,113.946,145.53,1386.3,63.2255,13.4596,1572.72,43.8963,72.6786,1600.69,61.727,58.853,1660.4,42.2615
0.62,258.403,1607.15,1385.2,74.1443,1494.31,1439.49,445.816,1525.01,1414.42,137.377,1601.22,996.086,397.346,1599.49,1004.96,325.221,1424.7,1020.81,195.325,1419.78,1016.71,447.138,1479.94,538.755,322.781,1525.36,498.311,457.431,1471.35,458.423,403.82,1518.29,287.627,474.881,1459.89,92.959,404.676,1522.24,119.13,405.599,1404.67,61.4049,553.754,1596.81,32.4082,489.076,1616.34,62.9674,495.059,1669.23,44.1698,89.2707,1498.86,522.451,218.689,1524.23,493.843,84.0671,1479.6,461.834,144.445,1517.02,300.3,79.2293,1448.76,100.319,156.667,1498.84,113.965,145.523,1386.3,63.2324,13.4691,1572.73,43.8932,72.6831,1600.69,61.7245,58.852,1660.41,42.2659
0.63,258.414,1607.12,1385.17,74.167,1494.34,1439.5,445.827,1524.97,1414.4,137.365,1601.22,996.095,397.359,1599.48,1004.96,325.223,1424.66,1020.79,195.317,1419.76,1016.73,447.136,1479.91,538.762,322.763,1525.32,498.333,457.45,1471.33,458.416,403.829,1518.25,287.639,474.866,1459.9,92.9409,404.679,1522.23,119.139,405.601,1404.66,61.4142,553.744,1596.8,32.425,489.075,1616.33,62.9799,495.061,1669.22,44.185,89.282,1498.83,522.466,218.683,1524.22,493.871,84.0699,1479.57,461.838,144.445,1517,300.319,79.2049,1448.74,100.326,156.663,1498.84,113.982,145.494,1386.29,63.2464,13.466,1572.73,43.9147,72.6685,1600.68,61.7398,58.8445,1660.4,42.2918
0.64,258.461,1607.09,1385.13,74.1665,1494.35,1439.53,445.853,1524.94,1414.38,137.363,1601.22,996.105,397.36,1599.47,1004.95,325.225,1424.64,1020.82,195.314,1419.75,1016.76,447.136,1479.88,538.775,322.773,1525.29,498.337,457.449,1471.3,458.433,403.829,1518.24,287.63,474.84,1459.9,92.9446,404.691,1522.22,119.132,405.596,1404.65,61.427,553.733,1596.81,32.4291,489.065,1616.36,63.0191,495.048,1669.26,44.2118,89.2769,1498.8,522.475,218.676,1524.19,493.893,84.0662,1479.54,461.848,144.436,1516.98,300.318,79.1695,1448.73,100.357,156.651,1498.84,113.994,145.49,1386.28,63.2601,13.4784,1572.73,43.9081,72.6798,1600.68,61.7444,58.8303,1660.4,42.3139
0.65,258.497,1607.06,1385.07,74.1911,1494.39,1439.53,445.867,1524.89,1414.36,137.36,1601.21,996.091,397.355,1599.49,1004.98,325.227,1424.61,1020.84,195.303,1419.73,1016.79,447.137,1479.86,538.787,322.78,1525.27,498.337,457.455,1471.29,458.444,403.841,1518.23,287.637,474.863,1459.89,92.9632,404.697,1522.22,119.133,405.584,1404.63,61.4549,553.725,1596.81,32.4563,489.057,1616.35,63.0127,495.042,1669.25,44.2501,89.2792,1498.77,522.481,218.677,1524.17,493.92,84.0683,1479.53,461.862,144.441,1516.96,300.321,79.1564,1448.73,100.37,156.656,1498.86,114.016,145.478,1386.27,63.275,13.4766,1572.72,43.9089,72.6746,1600.69,61.745,58.8203,1660.4,42.3418
0.66,258.519,1606.83,1384.88,74.2085,1494.43,1439.57,445.896,1524.86,1414.33,137.37,1601.21,996.084,397.356,1599.48,1004.98,325.204,1424.6,1020.86,195.305,1419.74,1016.84,447.144,1479.85,538.802,322.786,1525.26,498.344,457.457,1471.29,458.447,403.843,1518.22,287.632,474.878,1459.88,92.9836,404.692,1522.22,119.138,405.586,1404.64,61.4598,553.722,1596.82,32.4622,489.053,1616.38,63.038,495.031,1669.27,44.2205,89.2842,1498.75,522.491,218.677,1524.15,493.914,84.0753,1479.52,461.861,144.441,1516.95,300.307,79.1591,1448.74,100.368,156.637,1498.85,114.022,145.468,1386.28,63.281,13.4709,1572.73,43.9219,72.6717,1600.7,61.7473,58.8109,1660.39,42.3519
0.67,258.554,1606.79,1384.81,74.2387,1494.47,1439.59,445.913,1524.83,1414.27,137.357,1601.19,996.095,397.36,1599.47,1004.97,325.196,1424.62,1020.83,195.285,1419.72,1016.85,447.149,1479.83,538.798,322.791,1525.25,498.328,457.46,1471.27,458.447,403.842,1518.22,287.631,474.861,1459.9,92.9709,404.698,1522.22,119.14,405.58,1404.64,61.4774,553.715,1596.82,32.4585,489.057,1616.35,63.0081,495.031,1669.27,44.2288,89.3007,1498.73,522.488,218.677,1524.13,493.915,84.0815,1479.48,461.866,144.44,1516.93,300.31,79.1534,1448.74,100.372,156.642,1498.86,114.019,145.479,1386.28,63.2907,13.4775,1572.74,43.9187,72.6676,1600.69,61.7464,58.8102,1660.37,42.3641
0.68,258.611,1606.76,1384.76,74.2786,1494.48,1439.6,445.964,1524.79,1414.22,137.348,1601.19,996.093,397.355,1599.46,1004.95,325.171,1424.6,1020.81,195.257,1419.71,1016.82,447.15,1479.82,538.792,322.794,1525.23,498.327,457.383,1471.06,458.577,403.837,1518.23,287.633,474.862,1459.88,92.9723,404.702,1522.22,119.145,405.595,1404.64,61.4476,553.728,1596.81,32.4441,489.052,1616.38,63.0367,495.035,1669.24,44.2384,89.2796,1498.71,522.491,218.691,1524.08,493.904,84.0988,1479.46,461.859,144.44,1516.93,300.315,79.1606,1448.72,100.359,156.641,1498.86,114.008,145.475,1386.28,63.2839,13.4759,1572.74,43.9232,72.6715,1600.69,61.7544,58.8384,1660.39,42.3871
0.69,258.64,1606.74,1384.67,74.3031,1494.52,1439.6,446.033,1524.77,1414.15,137.334,1601.16,996.099,397.375,1599.43,1004.93,325.158,1424.63,1020.76,195.213,1419.69,1016.79,447.152,1479.81,538.78,322.794,1525.23,498.339,457.47,1471.22,458.46,403.85,1518.22,287.642,474.885,1459.86,92.9833,404.701,1522.2,119.142,405.611,1404.64,61.4338,553.733,1596.82,32.4388,489.057,1616.36,63.0056,495.04,1669.25,44.2241,89.292,1498.68,522.477,218.704,1524.05,493.89,84.1043,1479.44,461.858,144.438,1516.92,300.318,79.1844,1448.74,100.351,156.65,1498.85,114.001,145.491,1386.28,63.2668,13.4674,1572.73,43.9191,72.6676,1600.69,61.7545,58.8405,1660.37,42.3735
0.7,258.688,1606.72,1384.62,74.3396,1494.55,1439.61,446.048,1524.72,1414.08,137.324,1601.16,996.111,397.372,1599.41,1004.91,325.132,1424.64,1020.7,195.208,1419.69,1016.75,447.159,1479.8,538.759,322.8,1525.23,498.322,457.488,1471.18,458.447,403.849,1518.2,287.638,474.914,1459.84,92.9744,404.703,1522.21,119.143,405.632,1404.64,61.4159,553.746,1596.8,32.4194,489.071,1616.34,62.9787,495.053,1669.25,44.2267,89.2992,1498.65,522.482,218.73,1524.01,493.873,84.1066,1479.42,461.859,144.432,1516.91,300.323,79.1947,1448.73,100.337,156.657,1498.83,113.979,145.504,1386.29,63.2501,13.4754,1572.74,43.9161,72.6706,1600.7,61.7659,58.8268,1660.35,42.3719
0.71,258.741,1606.7,1384.58,74.3733,1494.57,1439.61,446.098,1524.67,1414.04,137.316,1601.14,996.131,397.376,1599.42,1004.91,325.112,1424.69,1020.62,195.19,1419.7,1016.72,447.169,1479.77,538.733,322.805,1525.19,498.31,457.492,1471.16,458.435,403.862,1518.19,287.635,474.923,1459.83,92.9478,404.704,1522.2,119.147,405.65,1404.64,61.3906,553.754,1596.8,32.4022,489.082,1616.34,62.9957,495.056,1669.23,44.1984,89.3154,1498.62,522.478,218.748,1523.97,493.857,84.1194,1479.37,461.854,144.428,1516.88,300.334,79.2244,1448.73,100.308,156.663,1498.82,113.976,145.518,1386.29,63.2322,13.4563,1572.72,43.9156,72.6695,1600.69,61.7661,58.7864,1660.45,42.14
0.72,258.792,1606.67,1384.56,74.4052,1494.59,1439.63,446.147,1524.61,1413.99,137.312,1601.14,996.141,397.387,1599.4,1004.88,325.124,1424.73,1020.56,195.153,1419.71,1016.71,447.179,1479.75,538.714,322.803,1525.16,498.293,457.51,1471.13,458.427,403.863,1518.18,287.639,474.933,1459.85,92.9163,404.707,1522.21,119.138,405.663,1404.64,61.378,553.775,1596.81,32.4026,489.096,1616.34,62.975,495.068,1669.22,44.1672,89.3191,1498.6,522.475,218.767,1523.92,493.851,84.1279,1479.36,461.852,144.435,1516.88,300.334,79.1901,1448.72,100.307,156.669,1498.81,113.966,145.526,1386.29,63.2155,13.4963,1572.77,43.9124,72.6678,1600.69,61.7511,58.7895,1660.44,42.1319
0.73,258.843,1606.64,1384.53,74.4395,1494.61,1439.65,446.208,1524.56,1413.96,137.298,1601.13,996.152,397.385,1599.4,1004.86,325.107,1424.76,1020.5,195.13,1419.73,1016.71,447.187,1479.75,538.695,322.799,1525.13,498.286,457.51,1471.14,458.415,403.859,1518.17,287.617,474.935,1459.84,92.9219,404.708,1522.19,119.114,405.656,1404.64,61.3595,553.782,1596.8,32.385,489.098,1616.31,62.9405,495.071,1669.23,44.1727,89.3188,1498.58,522.473,218.55,1524.13,493.992,84.1323,1479.34,461.846,144.434,1516.87,300.332,79.2307,1448.71,100.291,156.675,1498.81,113.96,145.525,1386.29,63.2072,13.5079,1572.77,43.893,72.6704,1600.7,61.7455,58.8667,1660.43,42.2651
0.74,258.896,1606.6,1384.51,74.4753,1494.61,1439.68,446.225,1524.49,1413.94,137.302,1601.12,996.158,397.384,1599.41,1004.85,325.081,1424.74,1020.49,195.101,1419.72,1016.72,447.197,1479.76,538.693,322.793,1525.13,498.28,457.526,1471.14,458.411,403.873,1518.17,287.603,474.93,1459.83,92.9194,404.713,1522.2,119.106,405.651,1404.64,61.3643,553.77,1596.8,32.3859,489.102,1616.32,62.9536,495.073,1669.23,44.1818,89.3027,1498.59,522.483,218.719,1524,493.886,84.1206,1479.36,461.851,144.446,1516.88,300.316,79.2042,1448.74,100.308,156.673,1498.83,113.963,145.534,1386.27,63.2315,13.4916,1572.76,43.8784,72.6676,1600.69,61.7328,58.8371,1660.38,42.274
0.75,258.952,1606.56,1384.49,74.5063,1494.63,1439.7,446.249,1524.44,1413.91,137.288,1601.12,996.184,397.386,1599.4,1004.83,325.072,1424.76,1020.46,195.07,1419.69,1016.74,447.198,1479.78,538.703,322.791,1525.14,498.28,457.458,1470.99,458.523,403.875,1518.17,287.596,474.929,1459.82,92.9287,404.72,1522.2,119.097,405.637,1404.65,61.3695,553.77,1596.8,32.3904,489.087,1616.32,62.942,495.075,1669.24,44.1892,89.3055,1498.61,522.488,218.704,1524.01,493.901,84.1145,1479.37,461.855,144.449,1516.89,300.309,79.206,1448.75,100.312,156.667,1498.84,113.969,145.529,1386.27,63.2391,13.4931,1572.76,43.8831,72.6744,1600.69,61.7247,58.7897,1660.44,42.1275
0.76,258.98,1606.53,1384.48,74.5532,1494.65,1439.73,446.299,1524.38,1413.9,137.287,1601.12,996.197,397.386,1599.41,1004.85,325.041,1424.76,1020.45,195.041,1419.69,1016.76,447.193,1479.81,538.708,322.806,1525.19,498.287,457.525,1471.18,458.41,403.871,1518.19,287.596,474.905,1459.85,92.9324,404.722,1522.19,119.101,405.628,1404.64,61.3904,553.761,1596.81,32.4086,489.086,1616.32,62.9519,495.06,1669.25,44.2061,89.3081,1498.64,522.495,218.691,1524.06,493.919,84.1007,1479.41,461.874,144.455,1516.91,300.315,79.1907,1448.74,100.338,156.663,1498.83,113.983,145.52,1386.27,63.2625,13.5026,1572.74,43.8783,72.6798,1600.69,61.7248,58.8746,1660.49,42.2547
0.77,259.014,1606.51,1384.47,74.579,1494.67,1439.76,446.316,1524.32,1413.89,137.267,1601.12,996.219,397.374,1599.41,1004.86,325.005,1424.73,1020.44,195.011,1419.65,1016.77,447.185,1479.84,538.728,322.81,1525.2,498.295,457.529,1471.19,458.433,403.879,1518.2,287.603,474.903,1459.85,92.9449,404.709,1522.18,119.103,405.621,1404.63,61.4135,553.744,1596.81,32.4156,489.073,1616.35,63.0136,495.057,1669.26,44.2261,89.3054,1498.68,522.498,218.67,1524.12,493.953,84.1023,1479.44,461.879,144.459,1516.92,300.314,79.1794,1448.75,100.36,156.654,1498.85,114.002,145.508,1386.29,63.2573,13.5007,1572.76,43.8916,72.6782,1600.69,61.7341,58.7897,1660.37,42.3182
0.78,259.057,1606.49,1384.46,74.6386,1494.68,1439.79,446.36,1524.26,1413.86,137.248,1601.13,996.229,397.378,1599.4,1004.87,324.984,1424.72,1020.41,194.97,1419.64,1016.78,447.196,1479.87,538.745,322.83,1525.23,498.287,457.532,1471.26,458.431,403.874,1518.23,287.605,474.896,1459.85,92.9676,404.711,1522.2,119.111,405.612,1404.63,61.4359,553.739,1596.81,32.4396,489.068,1616.34,63.0091,495.051,1669.26,44.229,89.2906,1498.72,522.509,218.675,1524.16,493.965,84.1028,1479.47,461.881,144.449,1516.93,300.325,79.1911,1448.75,100.369,156.643,1498.85,114.01,145.512,1386.3,63.2664,13.5086,1572.76,43.8785,72.6787,1600.69,61.7259,58.7557,1660.46,42.1713
0.79,259.097,1606.46,1384.44,74.6829,1494.68,1439.82,446.4,1524.22,1413.82,137.239,1601.14,996.24,397.371,1599.39,1004.88,324.952,1424.76,1020.4,194.962,1419.65,1016.78,447.208,1479.92,538.735,322.829,1525.28,498.303,457.531,1471.3,458.426,403.869,1518.25,287.613,474.917,1459.83,92.9745,404.715,1522.21,119.13,405.608,1404.64,61.4305,553.729,1596.81,32.4364,489.068,1616.34,62.9995,495.047,1669.24,44.2408,89.2936,1498.74,522.516,218.661,1524.18,493.963,84.0888,1479.5,461.895,144.445,1516.96,300.319,79.2103,1448.75,100.358,156.651,1498.86,114.016,145.511,1386.3,63.2735,13.5061,1572.75,43.8907,72.6712,1600.7,61.7437,58.7595,1660.47,42.1657
0.8,259.127,1606.45,1384.41,74.7196,1494.7,1439.85,446.424,1524.19,1413.77,137.228,1601.16,996.247,397.373,1599.37,1004.88,324.928,1424.76,1020.35,194.952,1419.66,1016.77,447.202,1479.94,538.733,322.832,1525.3,498.316,457.537,1471.31,458.431,403.85,1518.26,287.626,474.891,1459.86,92.9531,404.698,1522.2,119.134,405.611,1404.63,61.4146,553.733,1596.8,32.4375,489.065,1616.33,63.0035,495.04,1669.25,44.2304,89.2907,1498.77,522.511,218.667,1524.19,493.957,84.0962,1479.53,461.88,144.431,1516.98,300.333,79.1735,1448.75,100.368,156.651,1498.85,114.008,145.496,1386.3,63.2753,13.4964,1572.75,43.9137,72.6667,1600.7,61.7577,58.7558,1660.45,42.1598
0.81,259.156,1606.44,1384.4,74.7407,1494.7,1439.88,446.459,1524.14,1413.73,137.225,1601.18,996.246,397.371,1599.36,1004.88,324.912,1424.8,1020.31,194.954,1419.69,1016.77,447.205,1479.96,538.724,322.819,1525.33,498.321,457.542,1471.32,458.428,403.856,1518.27,287.615,474.876,1459.86,92.9373,404.708,1522.2,119.128,405.618,1404.63,61.4075,553.736,1596.8,32.4423,489.066,1616.33,62.9915,495.052,1669.26,44.2179,89.2877,1498.8,522.494,218.669,1524.21,493.937,84.0831,1479.54,461.883,144.429,1516.99,300.332,79.1831,1448.75,100.356,156.651,1498.85,114.014,145.508,1386.3,63.2808,13.4946,1572.75,43.9132,72.6684,1600.71,61.7562,58.7624,1660.46,42.1484
0.82,259.179,1606.44,1384.37,74.7699,1494.71,1439.89,446.476,1524.13,1413.68,137.224,1601.19,996.239,397.372,1599.36,1004.88,324.91,1424.8,1020.27,194.953,1419.73,1016.77,447.219,1479.98,538.705,322.828,1525.35,498.332,457.544,1471.34,458.409,403.855,1518.27,287.611,474.884,1459.86,92.9267,404.697,1522.21,119.142,405.623,1404.65,61.3947,553.745,1596.8,32.43,489.069,1616.33,62.9832,495.05,1669.26,44.2218,89.2773,1498.81,522.502,218.674,1524.2,493.918,84.0912,1479.56,461.873,144.43,1516.99,300.333,79.1863,1448.74,100.34,156.657,1498.85,113.992,145.437,1386.36,63.1919,13.4728,1572.71,43.9286,72.5387,1600.94,61.8715,58.7748,1660.45,42.1452
0.83,259.208,1606.42,1384.35,74.8073,1494.72,1439.91,446.503,1524.1,1413.62,137.217,1601.22,996.245,397.375,1599.35,1004.87,324.909,1424.83,1020.23,194.948,1419.76,1016.76,447.211,1479.99,538.693,322.821,1525.4,498.313,457.541,1471.36,458.403,403.85,1518.3,287.611,474.897,1459.84,92.9484,404.692,1522.21,119.137,405.636,1404.65,61.3768,553.742,1596.8,32.4181,489.078,1616.32,62.9851,495.061,1669.22,44.2036,89.2747,1498.82,522.479,218.68,1524.16,493.894,84.0851,1479.56,461.861,144.429,1516.99,300.332,79.2293,1448.73,100.321,156.663,1498.84,113.976,145.512,1386.31,63.2591,13.4918,1572.73,43.9534,72.6153,1600.81,61.799,58.7917,1660.45,42.1273
0.84,259.231,1606.4,1384.33,74.8265,1494.72,1439.92,446.533,1524.07,1413.58,137.211,1601.23,996.228,397.381,1599.36,1004.86,324.89,1424.84,1020.2,194.952,1419.81,1016.74,447.21,1479.99,538.686,322.815,1525.37,498.306,457.539,1471.37,458.387,403.847,1518.28,287.603,474.892,1459.85,92.9257,404.698,1522.21,119.124,405.64,1404.64,61.3646,553.754,1596.8,32.4083,489.079,1616.31,62.9798,495.06,1669.22,44.1913,89.2652,1498.82,522.471,218.691,1524.17,493.891,84.0947,1479.54,461.848,144.424,1517,300.318,79.2168,1448.75,100.326,156.672,1498.84,113.972,145.465,1386.36,63.2159,13.4589,1572.66,43.9418,72.6161,1600.8,61.7971,58.7869,1660.46,42.1196
0.85,259.269,1606.4,1384.32,74.8461,1494.72,1439.93,446.559,1524.05,1413.56,137.21,1601.26,996.217,397.374,1599.38,1004.84,324.866,1424.85,1020.18,194.925,1419.86,1016.73,447.193,1479.99,538.669,322.805,1525.4,498.266,457.525,1471.37,458.378,403.85,1518.3,287.598,474.889,1459.83,92.9161,404.7,1522.2,119.123,405.646,1404.64,61.3658,553.759,1596.8,32.4062,489.081,1616.34,62.9909,495.053,1669.23,44.1906,89.2653,1498.8,522.467,218.685,1524.16,493.878,84.0769,1479.54,461.836,144.41,1516.99,300.326,79.2415,1448.74,100.306,156.68,1498.86,113.973,145.46,1386.35,63.2095,13.5105,1572.73,43.9374,72.6137,1600.81,61.7881,58.7879,1660.46,42.1185
0.86,259.298,1606.38,1384.31,74.8792,1494.73,1439.94,446.603,1524.03,1413.54,137.201,1601.29,996.226,397.376,1599.41,1004.85,324.84,1424.87,1020.19,194.886,1419.87,1016.72,447.172,1479.99,538.685,322.81,1525.38,498.27,457.513,1471.39,458.383,403.85,1518.31,287.605,474.866,1459.86,92.8977,404.695,1522.2,119.126,405.628,1404.64,61.3672,553.757,1596.8,32.4182,489.082,1616.34,63.0052,495.051,1669.23,44.2066,89.2424,1498.81,522.479,218.678,1524.16,493.904,84.0733,1479.53,461.848,144.41,1516.98,300.319,79.2008,1448.75,100.332,156.674,1498.86,113.996,145.451,1386.35,63.2124,13.4765,1572.69,43.956,72.6121,1600.8,61.7919,58.7826,1660.45,42.1295
0.87,259.331,1606.36,1384.3,74.9124,1494.74,1439.95,446.634,1524,1413.53,137.195,1601.32,996.226,397.374,1599.43,1004.83,324.826,1424.92,1020.18,194.855,1419.92,1016.73,447.167,1479.99,538.697,322.806,1525.38,498.275,457.496,1471.39,458.385,403.844,1518.31,287.606,474.894,1459.82,92.9391,404.708,1522.19,119.126,405.625,1404.62,61.3896,553.752,1596.79,32.4324,489.066,1616.35,63.0232,495.044,1669.24,44.2146,89.2201,1498.81,522.493,218.678,1524.16,493.909,84.0498,1479.54,461.863,144.403,1516.97,300.323,79.1848,1448.74,100.345,156.662,1498.84,113.984,145.452,1386.34,63.2179,13.4833,1572.69,43.9236,72.6179,1600.79,61.7853,58.7771,1660.45,42.145
0.88,259.361,1606.36,1384.29,74.9281,1494.74,1439.95,446.66,1523.98,1413.51,137.191,1601.35,996.219,397.359,1599.45,1004.81,324.8,1424.92,1020.19,194.837,1419.94,1016.75,447.147,1480,538.699,322.809,1525.4,498.26,457.482,1471.4,458.389,403.851,1518.3,287.587,474.882,1459.83,92.9413,404.703,1522.2,119.103,405.609,1404.62,61.3954,553.746,1596.8,32.4213,489.061,1616.36,63.025,495.047,1669.25,44.2141,89.2371,1498.82,522.478,218.663,1524.15,493.898,84.0403,1479.55,461.855,144.405,1516.97,300.322,79.1699,1448.74,100.356,156.649,1498.87,113.997,145.44,1386.32,63.2304,13.4491,1572.7,43.9214,72.6155,1600.77,61.7918,58.7747,1660.45,42.1406
0.89,259.395,1606.34,1384.28,74.932,1494.75,1439.97,446.686,1523.94,1413.48,137.188,1601.39,996.216,397.36,1599.47,1004.8,324.801,1424.97,1020.19,194.811,1419.97,1016.74,447.126,1480,538.711,322.799,1525.39,498.25,457.47,1471.4,458.38,403.851,1518.3,287.583,474.876,1459.81,92.9403,404.706,1522.2,119.103,405.609,1404.61,61.3957,553.745,1596.79,32.4189,489.065,1616.37,63.0489,495.039,1669.25,44.2281,89.2178,1498.84,522.48,218.662,1524.18,493.922,84.0257,1479.58,461.841,144.405,1516.97,300.313,79.1634,1448.74,100.339,156.626,1498.83,113.986,145.443,1386.3,63.2368,13.4837,1572.7,43.8978,72.6365,1600.77,61.7614,58.7634,1660.45,42.1455
0.9,259.432,1606.32,1384.28,74.9819,1494.75,1439.96,446.696,1523.93,1413.45,137.178,1601.42,996.217,397.346,1599.49,1004.79,324.79,1424.98,1020.19,194.805,1419.99,1016.77,447.11,1480,538.711,322.804,1525.41,498.252,457.458,1471.42,458.386,403.848,1518.29,287.581,474.87,1459.82,92.9437,404.711,1522.19,119.102,405.604,1404.62,61.4062,553.744,1596.79,32.4237,489.069,1616.35,63.0344,495.036,1669.25,44.23,89.2126,1498.85,522.477,218.653,1524.18,493.912,84.0204,1479.58,461.849,144.411,1516.99,300.316,79.1698,1448.73,100.356,156.623,1498.84,113.998,145.45,1386.28,63.2636,13.481,1572.7,43.9204,72.6365,1600.75,61.7891,58.7608,1660.44,42.1609
0.91,259.472,1606.29,1384.27,75.0195,1494.73,1439.97,446.725,1523.91,1413.41,137.165,1601.46,996.215,397.333,1599.52,1004.78,324.8,1425.01,1020.19,194.785,1420.03,1016.77,447.099,1480.01,538.721,322.789,1525.41,498.242,457.454,1471.43,458.396,403.838,1518.3,287.585,474.883,1459.84,92.9477,404.71,1522.21,119.1,405.606,1404.63,61.4149,553.75,1596.8,32.4244,489.061,1616.34,63.0057,495.05,1669.25,44.2261,89.212,1498.89,522.468,218.636,1524.21,493.913,83.9999,1479.62,461.845,144.413,1517.02,300.31,79.1496,1448.74,100.371,156.628,1498.85,114.002,145.467,1386.29,63.2646,13.4807,1572.66,43.9536,72.6474,1600.75,61.7738,58.7706,1660.44,42.1483
0.92,259.507,1606.27,1384.25,75.0498,1494.74,1439.96,446.751,1523.87,1413.34,137.159,1601.5,996.205,397.326,1599.54,1004.78,324.797,1425.05,1020.16,194.758,1420.06,1016.76,447.083,1480.03,538.704,322.769,1525.44,498.228,457.442,1471.43,458.382,403.831,1518.29,287.563,474.859,1459.86,92.9303,404.703,1522.21,119.084,405.613,1404.62,61.4032,553.741,1596.8,32.409,489.069,1616.34,62.9857,495.05,1669.25,44.2055,89.2093,1498.92,522.458,218.638,1524.23,493.9,84.0089,1479.65,461.825,144.409,1517.03,300.3,79.1557,1448.75,100.368,156.637,1498.84,113.983,145.477,1386.31,63.2438,13.3885,1572.49,44.0383,72.6654,1600.74,61.7483,58.7736,1660.45,42.1467
0.93,259.547,1606.25,1384.25,75.0962,1494.71,1439.98,446.792,1523.85,1413.31,137.132,1601.53,996.231,397.312,1599.54,1004.77,324.781,1425.09,1020.13,194.745,1420.1,1016.71,447.065,1480.05,538.695,322.751,1525.41,498.251,457.432,1471.44,458.382,403.838,1518.29,287.579,474.889,1459.84,92.9536,404.693,1522.22,119.093,405.615,1404.64,61.3916,553.748,1596.78,32.4177,489.076,1616.33,62.9785,495.058,1669.24,44.2092,89.1887,1498.95,522.453,218.645,1524.23,493.9,84.0009,1479.68,461.839,144.414,1517.04,300.31,79.1648,1448.75,100.362,156.644,1498.83,113.985,145.489,1386.3,63.2454,13.6134,1572.93,43.8438,72.6686,1600.73,61.746,58.7796,1660.45,42.1345
0.94,259.579,1606.23,1384.23,75.1423,1494.68,1439.99,446.848,1523.84,1413.26,137.117,1601.56,996.237,397.304,1599.55,1004.77,324.764,1425.13,1020.1,194.726,1420.13,1016.71,447.076,1480.07,538.686,322.732,1525.45,498.273,457.427,1471.45,458.382,403.826,1518.31,287.595,474.899,1459.84,92.9355,404.696,1522.22,119.112,405.629,1404.64,61.3815,553.75,1596.79,32.4204,489.076,1616.33,62.9912,495.067,1669.22,44.2143,89.1783,1498.98,522.462,218.642,1524.24,493.91,83.9797,1479.71,461.844,144.408,1517.06,300.324,79.1749,1448.74,100.363,156.643,1498.84,113.981,145.499,1386.3,63.2415,13.6103,1572.93,43.8527,72.6698,1600.72,61.7637,58.7915,1660.46,42.139
0.95,259.608,1606.21,1384.2,75.1874,1494.64,1440,446.876,1523.83,1413.21,137.094,1601.6,996.257,397.305,1599.56,1004.75,324.711,1425.13,1020.1,194.676,1420.16,1016.69,447.067,1480.1,538.675,322.716,1525.46,498.282,457.418,1471.46,458.373,403.817,1518.32,287.582,474.898,1459.84,92.9373,404.69,1522.23,119.112,405.634,1404.64,61.3811,553.753,1596.79,32.411,489.087,1616.32,62.9815,495.062,1669.22,44.1916,89.1755,1499.02,522.458,218.634,1524.26,493.904,83.9651,1479.74,461.842,144.392,1517.07,300.314,79.1966,1448.76,100.352,156.65,1498.84,113.977,145.515,1386.3,63.2488,13.6139,1572.92,43.8439,72.684,1600.72,61.7561,58.797,1660.45,42.1273
0.96,259.634,1606.17,1384.18,75.2372,1494.6,1440.01,446.922,1523.83,1413.17,137.075,1601.64,996.271,397.3,1599.58,1004.75,324.671,1425.16,1020.08,194.629,1420.17,1016.7,447.08,1480.11,538.67,322.712,1525.49,498.263,457.42,1471.47,458.36,403.818,1518.32,287.57,474.892,1459.85,92.932,404.696,1522.22,119.103,405.641,1404.64,61.3737,553.756,1596.8,32.4062,489.091,1616.32,62.9706,495.069,1669.21,44.1873,89.1597,1499.06,522.448,218.63,1524.28,493.896,83.9512,1479.76,461.84,144.383,1517.09,300.317,79.2066,1448.77,100.33,156.651,1498.85,113.99,145.518,1386.3,63.2464,13.6057,1572.93,43.8566,72.6858,1600.72,61.7406,58.7876,1660.45,42.1258
0.97,259.672,1606.14,1384.16,75.2784,1494.58,1440.03,446.971,1523.82,1413.13,137.073,1601.68,996.271,397.307,1599.61,1004.75,324.617,1425.17,1020.04,194.593,1420.21,1016.68,447.06,1480.11,538.655,322.712,1525.48,498.243,457.412,1471.47,458.368,403.802,1518.33,287.566,474.885,1459.84,92.922,404.693,1522.22,119.103,405.632,1404.63,61.3579,553.761,1596.78,32.4033,489.094,1616.3,62.951,495.066,1669.22,44.1758,89.1515,1499.08,522.443,218.614,1524.28,493.893,83.9363,1479.77,461.838,144.37,1517.09,300.311,79.191,1448.74,100.332,156.649,1498.83,113.979,145.518,1386.3,63.2324,13.602,1572.92,43.8628,72.6691,1600.71,61.7346,58.787,1660.45,42.1184
0.98,259.695,1606.12,1384.16,75.3185,1494.54,1440.04,447.003,1523.8,1413.09,137.069,1601.72,996.268,397.306,1599.65,1004.74,324.576,1425.21,1020.03,194.551,1420.23,1016.67,447.054,1480.13,538.659,322.688,1525.51,498.242,457.411,1471.47,458.369,403.794,1518.34,287.58,474.875,1459.84,92.9309,404.687,1522.21,119.124,405.636,1404.64,61.3648,553.753,1596.81,32.4096,489.081,1616.31,62.9606,495.054,1669.22,44.1857,89.1402,1499.09,522.445,218.594,1524.31,493.888,83.9267,1479.79,461.841,144.37,1517.12,300.315,79.1886,1448.77,100.325,156.645,1498.83,113.986,145.505,1386.3,63.239,13.5986,1572.93,43.8645,72.6642,1600.71,61.7427,58.8287,1660.42,42.2554
0.99,259.721,1606.09,1384.17,75.3561,1494.53,1440.05,447.142,1523.88,1413.12,137.054,1601.78,996.277,397.295,1599.7,1004.72,324.543,1425.25,1020.03,194.505,1420.27,1016.68,447.034,1480.13,538.669,322.686,1525.5,498.225,457.387,1471.48,458.384,403.779,1518.33,287.569,474.861,1459.84,92.9337,404.689,1522.22,119.123,405.614,1404.64,61.3735,553.746,1596.8,32.4273,489.074,1616.32,62.9934,495.05,1669.24,44.2087,89.1136,1499.13,522.445,218.581,1524.35,493.905,83.9139,1479.82,461.836,144.367,1517.11,300.318,79.1711,1448.74,100.365,156.632,1498.87,114.01,145.493,1386.29,63.2642,13.5933,1572.93,43.8719,72.6594,1600.71,61.7508,58.8692,1660.49,42.295
1,259.751,1606.07,1384.16,75.3976,1494.52,1440.05,447.098,1523.77,1413.02,137.056,1601.84,996.27,397.297,1599.74,1004.71,324.517,1425.28,1019.99,194.477,1420.3,1016.67,447.007,1480.13,538.678,322.674,1525.53,498.219,457.364,1471.49,458.381,403.775,1518.33,287.569,474.851,1459.84,92.9381,404.683,1522.2,119.121,405.597,1404.63,61.3879,553.738,1596.81,32.431,489.063,1616.32,62.9866,495.041,1669.25,44.2351,89.108,1499.17,522.441,218.567,1524.4,493.902,83.9053,1479.85,461.828,144.362,1517.14,300.305,79.1412,1448.74,100.36,156.626,1498.9,114.027,145.475,1386.29,63.2738,13.5867,1572.92,43.8653,72.66,1600.72,61.7527,58.844,1660.46,42.2865
1.01,259.77,1606.05,1384.16,75.4302,1494.49,1440.06,447.114,1523.73,1413,137.052,1601.88,996.268,397.29,1599.79,1004.7,324.479,1425.28,1019.97,194.445,1420.35,1016.66,446.977,1480.16,538.673,322.669,1525.55,498.212,457.27,1471.32,458.516,403.771,1518.34,287.55,474.828,1459.84,92.9319,404.681,1522.19,119.111,405.584,1404.63,61.392,553.735,1596.8,32.4404,489.068,1616.34,63.0133,495.037,1669.24,44.2372,89.1035,1499.2,522.443,218.561,1524.44,493.911,83.9059,1479.89,461.826,144.362,1517.16,300.3,79.1227,1448.73,100.387,156.628,1498.89,114.024,145.47,1386.28,63.2785,13.5888,1572.93,43.8651,72.6589,1600.71,61.7522,58.8366,1660.45,42.2871
1.02,259.789,1606.03,1384.15,75.4554,1494.47,1440.07,447.232,1523.8,1412.99,137.043,1601.94,996.263,397.276,1599.83,1004.67,324.452,1425.33,1019.94,194.42,1420.4,1016.65,446.959,1480.19,538.658,322.668,1525.6,498.206,457.328,1471.5,458.398,403.781,1518.35,287.53,474.831,1459.85,92.9243,404.68,1522.21,119.086,405.575,1404.63,61.3975,553.727,1596.82,32.4346,489.053,1616.33,62.9944,495.021,1669.24,44.2321,89.095,1499.24,522.439,218.551,1524.48,493.901,83.8991,1479.91,461.841,144.369,1517.19,300.284,79.1319,1448.74,100.376,156.633,1498.89,114.022,145.461,1386.29,63.2784,13.579,1572.92,43.8561,72.6606,1600.7,61.7429,58.8251,1660.46,42.2781
1.03,259.809,1606.01,1384.14,75.4692,1494.46,1440.08,447.136,1523.68,1412.91,137.035,1601.98,996.261,397.277,1599.89,1004.66,324.463,1425.39,1019.88,194.411,1420.45,1016.63,446.954,1480.23,538.654,322.662,1525.62,498.193,457.315,1471.54,458.397,403.786,1518.36,287.523,474.809,1459.86,92.9398,404.675,1522.21,119.096,405.574,1404.62,61.4065,553.725,1596.82,32.4435,489.057,1616.34,63.0295,495.03,1669.23,44.23,89.0866,1499.29,522.427,218.532,1524.56,493.9,83.899,1479.95,461.833,144.378,1517.21,300.279,79.1214,1448.75,100.387,156.627,1498.9,114.019,145.459,1386.28,63.2919,13.583,1572.92,43.8479,72.666,1600.7,61.7248,58.809,1660.44,42.2737
1.04,259.832,1605.99,1384.13,75.4898,1494.45,1440.09,447.161,1523.66,1412.86,137.021,1602.04,996.26,397.254,1599.93,1004.63,324.458,1425.41,1019.85,194.389,1420.49,1016.59,446.945,1480.27,538.654,322.658,1525.69,498.188,457.306,1471.58,458.393,403.793,1518.38,287.498,474.837,1459.85,92.9392,404.671,1522.22,119.083,405.564,1404.63,61.4016,553.719,1596.82,32.43,489.052,1616.34,63.0013,495.025,1669.25,44.2197,89.0839,1499.34,522.428,218.535,1524.6,493.884,83.8891,1479.99,461.834,144.377,1517.22,300.259,79.1244,1448.75,100.384,156.63,1498.91,114.011,145.455,1386.29,63.285,13.5773,1572.93,43.8415,72.6732,1600.71,61.7096,58.7907,1660.41,42.256
1.05,259.859,1605.98,1384.13,75.4968,1494.43,1440.12,447.164,1523.62,1412.8,137.007,1602.09,996.267,397.249,1599.98,1004.62,324.449,1425.47,1019.77,194.369,1420.55,1016.54,446.949,1480.31,538.646,322.667,1525.75,498.196,457.255,1471.67,458.352,403.794,1518.4,287.492,474.816,1459.85,92.9333,404.679,1522.23,119.076,405.572,1404.64,61.3818,553.721,1596.81,32.4115,489.061,1616.33,62.9778,495.033,1669.24,44.1948,89.0748,1499.38,522.422,218.542,1524.6,493.864,83.8802,1480.05,461.825,144.392,1517.24,300.254,79.1278,1448.75,100.378,156.634,1498.9,113.987,145.468,1386.3,63.2714,13.5849,1572.92,43.8359,72.6711,1600.71,61.6973,58.7973,1660.4,42.2275
1.06,259.863,1605.97,1384.13,75.515,1494.43,1440.13,447.167,1523.58,1412.78,136.989,1602.13,996.282,397.238,1600.03,1004.63,324.433,1425.53,1019.73,194.359,1420.62,1016.49,446.959,1480.35,538.632,322.677,1525.8,498.19,457.31,1471.67,458.364,403.794,1518.43,287.491,474.825,1459.86,92.9329,404.673,1522.25,119.087,405.58,1404.62,61.3753,553.728,1596.8,32.3948,489.065,1616.34,62.9733,495.042,1669.23,44.1803,89.0812,1499.41,522.41,218.563,1524.61,493.85,83.8956,1480.05,461.819,144.39,1517.26,300.26,79.1298,1448.75,100.364,156.642,1498.9,113.974,145.489,1386.27,63.2822,13.5685,1572.91,43.8235,72.6773,1600.71,61.6892,58.8225,1660.41,42.2309
1.07,259.863,1605.97,1384.13,75.3933,1494.35,1440.23,447.183,1523.56,1412.73,136.97,1602.2,996.296,397.226,1600.07,1004.63,324.41,1425.6,1019.67,194.332,1420.7,1016.45,446.965,1480.4,538.63,322.685,1525.84,498.197,457.308,1471.72,458.351,403.797,1518.46,287.501,474.816,1459.86,92.925,404.67,1522.25,119.083,405.569,1404.64,61.3676,553.728,1596.79,32.4029,489.064,1616.34,62.9636,495.048,1669.22,44.1726,89.0832,1499.42,522.417,218.575,1524.63,493.849,83.9056,1480.08,461.812,144.383,1517.27,300.278,79.1311,1448.75,100.366,156.65,1498.89,113.964,145.484,1386.28,63.272,13.5728,1572.92,43.8293,72.6768,1600.72,61.6881,58.8631,1660.45,42.2318
1.08,259.879,1605.97,1384.13,75.5229,1494.42,1440.19,447.183,1523.53,1412.7,136.97,1602.28,996.297,397.217,1600.11,1004.65,324.372,1425.69,1019.62,194.314,1420.78,1016.43,446.963,1480.45,538.629,322.691,1525.89,498.202,457.27,1471.81,458.328,403.797,1518.49,287.509,474.813,1459.86,92.9249,404.673,1522.26,119.103,405.582,1404.64,61.37,553.738,1596.79,32.4048,489.073,1616.32,62.9549,495.055,1669.23,44.1633,89.1053,1499.45,522.428,218.588,1524.63,493.867,83.9092,1480.08,461.836,144.371,1517.2,300.256,79.1297,1448.75,100.387,156.644,1498.88,113.969,145.503,1386.28,63.2768,13.5837,1572.93,43.8312,72.6729,1600.72,61.7026,58.869,1660.46,42.2278
1.09,259.877,1605.97,1384.15,75.5234,1494.43,1440.24,447.202,1523.53,1412.64,136.973,1602.35,996.313,397.221,1600.15,1004.68,324.337,1425.75,1019.58,194.283,1420.84,1016.4,446.97,1480.51,538.623,322.683,1525.94,498.203,457.275,1471.86,458.322,403.795,1518.54,287.516,474.824,1459.85,92.9381,404.674,1522.26,119.11,405.587,1404.64,61.3819,553.731,1596.79,32.4041,489.08,1616.32,62.9319,495.049,1669.22,44.1622,89.1127,1499.47,522.424,218.594,1524.65,493.86,83.9256,1480.11,461.839,144.371,1517.22,300.276,79.1581,1448.74,100.377,156.644,1498.88,113.974,145.504,1386.31,63.2672,13.5715,1572.92,43.8418,72.6728,1600.72,61.7038,58.8342,1660.41,42.2384
1.1,259.871,1605.98,1384.17,75.5373,1494.43,1440.27,447.179,1523.5,1412.6,136.98,1602.42,996.318,397.22,1600.19,1004.69,324.303,1425.82,1019.52,194.253,1420.93,1016.38,446.963,1480.55,538.62,322.683,1525.99,498.208,457.264,1471.89,458.325,403.801,1518.56,287.527,474.813,1459.88,92.9187,404.66,1522.27,119.109,405.583,1404.64,61.3779,553.729,1596.78,32.4052,489.067,1616.33,62.9449,495.047,1669.22,44.1657,89.1146,1499.49,522.441,218.6,1524.69,493.876,83.9339,1480.14,461.853,144.369,1517.23,300.282,79.1863,1448.74,100.361,156.643,1498.89,113.979,145.51,1386.31,63.2656,13.5824,1572.93,43.8396,72.6726,1600.72,61.7121,58.8383,1660.42,42.2345
1.11,259.862,1605.98,1384.2,75.5287,1494.44,1440.31,447.155,1523.48,1412.56,136.996,1602.48,996.323,397.23,1600.24,1004.72,324.283,1425.87,1019.52,194.205,1421,1016.41,446.968,1480.58,538.63,322.672,1526.03,498.224,457.268,1471.92,458.357,403.777,1518.58,287.53,474.811,1459.87,92.9514,404.648,1522.28,119.119,405.574,1404.64,61.4011,553.725,1596.8,32.4302,489.06,1616.33,62.9671,495.044,1669.22,44.1865,89.1096,1499.55,522.45,218.601,1524.74,493.92,83.9256,1480.18,461.867,144.372,1517.26,300.285,79.1812,1448.77,100.38,156.638,1498.9,113.999,145.486,1386.31,63.28,13.518,1573.08,43.8197,72.6674,1600.71,61.7223,58.824,1660.43,42.2406
1.12,259.854,1605.98,1384.22,75.5163,1494.46,1440.34,447.109,1523.46,1412.53,137.011,1602.56,996.322,397.247,1600.28,1004.73,324.252,1425.95,1019.53,194.197,1421.07,1016.43,446.971,1480.64,538.651,322.684,1526.07,498.218,457.278,1471.96,458.371,403.783,1518.6,287.533,474.784,1459.89,92.9504,404.647,1522.27,119.117,405.566,1404.65,61.4129,553.719,1596.8,32.4368,489.053,1616.34,62.9792,495.018,1669.26,44.1861,89.0867,1499.61,522.466,218.592,1524.82,493.942,83.9335,1480.24,461.885,144.392,1517.38,300.307,79.1753,1448.76,100.405,156.635,1498.9,114.021,145.492,1386.31,63.312,13.5633,1572.99,43.8426,72.6739,1600.73,61.7155,58.8077,1660.43,42.2362
1.13,259.825,1605.97,1384.21,75.5113,1494.46,1440.4,447.094,1523.45,1412.48,137.021,1602.62,996.31,397.25,1600.32,1004.73,324.252,1425.99,1019.55,194.184,1421.13,1016.45,446.979,1480.68,538.657,322.684,1526.12,498.224,457.279,1472,458.375,403.784,1518.59,287.522,474.772,1459.89,92.953,404.659,1522.28,119.12,405.564,1404.65,61.4293,553.71,1596.8,32.4428,489.05,1616.35,62.9964,495.025,1669.25,44.201,89.0885,1499.69,522.481,218.599,1524.89,493.951,83.9399,1480.3,461.89,144.384,1517.4,300.301,79.1663,1448.76,100.423,156.631,1498.93,114.027,145.493,1386.31,63.3225,13.5681,1573,43.8539,72.6702,1600.73,61.7164,58.7929,1660.44,42.2336
1.14,259.807,1605.98,1384.22,75.404,1494.4,1440.5,447.024,1523.42,1412.44,137.04,1602.7,996.312,397.271,1600.38,1004.75,324.254,1426.07,1019.55,194.18,1421.19,1016.49,446.984,1480.72,538.662,322.688,1526.15,498.222,457.303,1472.04,458.388,403.8,1518.61,287.511,474.8,1459.88,92.967,404.654,1522.28,119.112,405.569,1404.64,61.431,553.717,1596.81,32.4406,489.057,1616.34,62.9801,495.033,1669.27,44.1967,89.0784,1499.77,522.468,218.591,1524.97,493.971,83.9476,1480.38,461.889,144.396,1517.44,300.283,79.1714,1448.78,100.43,156.638,1498.94,114.037,145.499,1386.31,63.3371,13.5767,1573.01,43.8504,72.6769,1600.73,61.7092,58.7884,1660.44,42.2268
1.15,259.773,1605.98,1384.23,75.4736,1494.48,1440.5,446.996,1523.42,1412.4,137.049,1602.77,996.307,397.261,1600.42,1004.76,324.286,1426.13,1019.56,194.193,1421.27,1016.52,446.999,1480.75,538.676,322.697,1526.14,498.221,457.312,1472.07,458.385,403.8,1518.62,287.496,474.824,1459.88,92.9719,404.665,1522.28,119.11,405.577,1404.64,61.4419,553.711,1596.81,32.4413,489.059,1616.34,62.9791,495.027,1669.28,44.2112,89.0717,1499.87,522.475,218.593,1525.02,493.987,83.9553,1480.45,461.893,144.389,1517.39,300.261,79.1892,1448.79,100.449,156.652,1498.97,114.038,145.498,1386.31,63.3418,13.5861,1573.02,43.854,72.6779,1600.74,61.7078,58.7878,1660.45,42.2238
1.16,259.743,1605.98,1384.23,75.4576,1494.48,1440.54,446.967,1523.41,1412.34,137.06,1602.85,996.309,397.27,1600.47,1004.77,324.315,1426.2,1019.54,194.218,1421.33,1016.52,447.006,1480.78,538.676,322.701,1526.18,498.205,457.326,1472.09,458.384,403.796,1518.65,287.516,474.818,1459.89,92.9686,404.662,1522.26,119.097,405.583,1404.64,61.4415,553.724,1596.82,32.4405,489.064,1616.35,62.982,495.034,1669.27,44.2003,89.0811,1499.96,522.461,218.604,1525.1,493.982,83.9584,1480.55,461.894,144.375,1517.44,300.25,79.1888,1448.81,100.448,156.676,1498.99,114.05,145.505,1386.32,63.3543,13.6033,1573,43.8358,72.6847,1600.75,61.7137,58.7712,1660.44,42.1984
1.17,259.704,1605.99,1384.22,75.4364,1494.5,1440.58,446.942,1523.41,1412.3,137.068,1602.92,996.3,397.269,1600.51,1004.79,324.348,1426.32,1019.49,194.243,1421.39,1016.49,447.031,1480.82,538.669,322.719,1526.22,498.197,457.348,1472.12,458.37,403.797,1518.66,287.491,474.827,1459.89,92.953,404.665,1522.27,119.103,405.592,1404.64,61.4278,553.732,1596.81,32.4311,489.058,1616.34,62.9722,495.052,1669.26,44.2065,89.0669,1500.05,522.457,218.614,1525.16,493.988,83.9478,1480.64,461.886,144.411,1517.57,300.272,79.2201,1448.81,100.429,156.688,1498.98,114.022,145.525,1386.34,63.3453,13.6164,1573.01,43.8329,72.6992,1600.75,61.7069,58.7812,1660.44,42.1613
1.18,259.67,1605.98,1384.22,75.327,1494.45,1440.68,446.925,1523.4,1412.23,137.066,1603,996.29,397.269,1600.55,1004.79,324.395,1426.41,1019.44,194.267,1421.46,1016.47,447.037,1480.83,538.659,322.72,1526.23,498.19,457.353,1472.15,458.364,403.805,1518.66,287.474,474.837,1459.88,92.9403,404.655,1522.27,119.092,405.602,1404.65,61.4029,553.742,1596.81,32.4164,489.071,1616.35,62.975,495.067,1669.25,44.1907,89.0582,1500.13,522.441,218.615,1525.23,493.964,83.9479,1480.7,461.872,144.414,1517.6,300.271,79.238,1448.81,100.409,156.713,1499,114.013,145.545,1386.34,63.33,13.6276,1573.01,43.8381,72.6937,1600.75,61.7029,58.7932,1660.45,42.1444
1.19,259.655,1606,1384.22,75.3124,1494.47,1440.73,446.907,1523.4,1412.18,137.065,1603.06,996.28,397.264,1600.58,1004.8,324.4,1426.48,1019.38,194.285,1421.55,1016.46,447.046,1480.88,538.641,322.712,1526.24,498.185,457.364,1472.18,458.355,403.796,1518.66,287.463,474.85,1459.87,92.9395,404.656,1522.27,119.077,405.617,1404.65,61.3857,553.747,1596.8,32.4081,489.08,1616.33,62.9439,495.064,1669.23,44.1698,89.0537,1500.2,522.42,218.624,1525.21,493.967,83.9436,1480.77,461.85,144.398,1517.63,300.267,79.263,1448.81,100.391,156.718,1498.99,113.988,145.567,1386.35,63.3123,13.6312,1572.99,43.8219,72.6909,1600.75,61.6912,58.7993,1660.45,42.1143
1.2,259.648,1606.03,1384.21,75.418,1494.57,1440.7,446.891,1523.42,1412.11,137.059,1603.15,996.283,397.244,1600.61,1004.84,324.402,1426.54,1019.33,194.265,1421.61,1016.44,447.036,1480.91,538.628,322.701,1526.26,498.186,457.354,1472.2,458.352,403.797,1518.69,287.463,474.837,1459.88,92.9394,404.654,1522.29,119.066,405.616,1404.66,61.3857,553.757,1596.81,32.4045,489.092,1616.34,62.925,495.064,1669.24,44.1467,89.0494,1500.26,522.408,218.618,1525.26,493.982,83.9342,1480.82,461.85,144.4,1517.67,300.265,79.2573,1448.83,100.399,156.728,1499,113.978,145.573,1386.34,63.3183,13.632,1572.99,43.8149,72.6982,1600.76,61.6733,58.8019,1660.45,42.1011
1.21,259.65,1606.05,1384.2,75.4225,1494.63,1440.74,446.905,1523.42,1412.05,137.039,1603.22,996.279,397.231,1600.64,1004.84,324.381,1426.6,1019.29,194.242,1421.7,1016.42,447.027,1480.93,538.638,322.687,1526.32,498.19,457.327,1472.21,458.35,403.787,1518.69,287.475,474.851,1459.88,92.9485,404.657,1522.29,119.066,405.613,1404.66,61.3813,553.758,1596.81,32.3907,489.085,1616.34,62.9383,495.074,1669.24,44.1478,89.0319,1500.31,522.419,218.611,1525.3,493.959,83.9055,1480.85,461.862,144.392,1517.7,300.292,79.2693,1448.84,100.386,156.73,1498.97,113.962,145.585,1386.34,63.3194,13.6343,1573,43.8295,72.6927,1600.76,61.6754,58.8133,1660.46,42.08
1.22,259.667,1606.07,1384.21,75.3368,1494.6,1440.83,446.871,1523.42,1411.98,137.032,1603.3,996.29,397.224,1600.65,1004.87,324.327,1426.64,1019.26,194.199,1421.77,1016.41,447.006,1480.95,538.635,322.678,1526.31,498.193,457.318,1472.21,458.349,403.782,1518.71,287.462,474.84,1459.89,92.9449,404.651,1522.29,119.065,405.607,1404.66,61.3848,553.763,1596.79,32.4027,489.086,1616.33,62.9226,495.082,1669.23,44.1552,89.0108,1500.36,522.412,218.617,1525.32,493.978,83.8846,1480.89,461.866,144.374,1517.73,300.294,79.2691,1448.84,100.392,156.734,1498.99,113.974,145.583,1386.36,63.3087,13.6356,1573,43.8323,72.69,1600.76,61.6685,58.8079,1660.46,42.0824
1.23,259.692,1606.11,1384.21,75.4688,1494.74,1440.81,446.883,1523.42,1411.94,137.002,1603.39,996.285,397.204,1600.68,1004.88,324.263,1426.7,1019.26,194.14,1421.81,1016.42,446.965,1480.98,538.633,322.66,1526.33,498.2,457.295,1472.24,458.361,403.773,1518.74,287.475,474.827,1459.89,92.9588,404.652,1522.32,119.072,405.606,1404.66,61.4025,553.759,1596.81,32.4102,489.084,1616.35,62.9528,495.081,1669.23,44.1661,88.99,1500.42,522.443,218.594,1525.37,494.002,83.8769,1480.95,461.888,144.374,1517.76,300.287,79.2669,1448.84,100.407,156.723,1498.98,113.967,145.58,1386.35,63.3455,13.6494,1572.98,43.8217,72.7001,1600.77,61.6622,58.8163,1660.46,42.1008
1.24,259.731,1606.14,1384.23,75.4066,1494.74,1440.9,446.879,1523.42,1411.91,136.984,1603.46,996.307,397.192,1600.7,1004.89,324.206,1426.71,1019.26,194.072,1421.9,1016.45,446.93,1480.99,538.653,322.637,1526.35,498.193,457.262,1472.25,458.371,403.77,1518.73,287.465,474.817,1459.9,92.9689,404.649,1522.31,119.062,405.581,1404.65,61.4404,553.746,1596.81,32.414,489.089,1616.38,62.9898,495.063,1669.27,44.1902,89.0612,1500.58,522.415,218.555,1525.45,494.037,83.8511,1481.02,461.901,144.372,1517.78,300.286,79.2684,1448.86,100.43,156.721,1498.99,113.994,145.563,1386.34,63.3609,13.654,1572.98,43.8192,72.7033,1600.78,61.6677,58.8089,1660.48,42.0969
1.25,259.774,1606.18,1384.24,75.4558,1494.82,1440.93,446.912,1523.42,1411.87,136.961,1603.54,996.309,397.182,1600.73,1004.9,324.153,1426.76,1019.25,194.016,1421.97,1016.49,446.893,1480.99,538.665,322.617,1526.38,498.186,457.225,1472.24,458.389,403.772,1518.73,287.461,474.797,1459.91,92.9804,404.648,1522.32,119.064,405.576,1404.66,61.4578,553.738,1596.81,32.4274,489.075,1616.37,62.9798,495.07,1669.28,44.2027,88.9585,1500.57,522.473,218.541,1525.49,494.059,83.8242,1481.08,461.92,144.364,1517.82,300.297,79.248,1448.86,100.453,156.707,1499.01,114.006,145.552,1386.37,63.377,13.6606,1572.97,43.8209,72.7083,1600.78,61.6677,58.7981,1660.5,42.1144
1.26,259.848,1606.38,1384.36,75.5012,1494.9,1440.98,446.928,1523.4,1411.82,136.939,1603.61,996.31,397.151,1600.76,1004.88,324.095,1426.78,1019.26,193.96,1422.04,1016.51,446.859,1481.01,538.668,322.589,1526.42,498.176,457.192,1472.25,458.396,403.751,1518.74,287.459,474.807,1459.9,92.9969,404.646,1522.32,119.064,405.577,1404.66,61.4631,553.731,1596.82,32.4259,489.066,1616.4,63.0138,495.065,1669.28,44.1935,88.9268,1500.64,522.474,218.497,1525.57,494.068,83.7871,1481.15,461.935,144.339,1517.86,300.3,79.2369,1448.87,100.479,156.706,1499.02,114.016,145.548,1386.37,63.4007,13.6555,1572.97,43.8342,72.7119,1600.78,61.6725,58.7761,1660.49,42.112
1.27,259.911,1606.41,1384.37,75.5269,1494.99,1441,446.97,1523.38,1411.78,136.901,1603.69,996.319,397.101,1600.8,1004.84,324.035,1426.83,1019.25,193.919,1422.08,1016.54,446.837,1481.02,538.672,322.568,1526.46,498.185,457.054,1472.07,458.519,403.732,1518.74,287.465,474.786,1459.93,92.989,404.642,1522.33,119.073,405.575,1404.66,61.4757,553.733,1596.82,32.4441,489.069,1616.41,63.0161,495.063,1669.28,44.2115,88.9015,1500.7,522.478,218.467,1525.64,494.057,83.7642,1481.21,461.939,144.326,1517.9,300.306,79.2398,1448.88,100.487,156.704,1499.04,114.03,145.549,1386.37,63.4108,13.6462,1572.98,43.8493,72.7014,1600.79,61.6746,58.7735,1660.51,42.1171
1.28,259.939,1606.29,1384.27,75.6499,1495.13,1440.98,447.009,1523.36,1411.74,136.873,1603.77,996.341,397.064,1600.85,1004.83,323.981,1426.85,1019.25,193.855,1422.16,1016.55,446.785,1481.03,538.685,322.53,1526.49,498.176,457.027,1472.08,458.531,403.713,1518.75,287.473,474.796,1459.95,92.9877,404.631,1522.35,119.101,405.568,1404.67,61.4762,553.73,1596.83,32.4464,489.063,1616.4,63.0166,495.062,1669.28,44.2014,88.8723,1500.78,522.484,218.435,1525.71,494.074,83.7424,1481.26,461.952,144.287,1517.96,300.317,79.2368,1448.9,100.501,156.702,1499.05,114.043,145.546,1386.38,63.4212,13.645,1572.97,43.8636,72.7032,1600.79,61.6885,58.7735,1660.51,42.1214
1.29,259.994,1606.33,1384.29,75.6898,1495.2,1441.01,447.046,1523.33,1411.7,136.838,1603.84,996.35,397.024,1600.87,1004.81,323.932,1426.91,1019.21,193.798,1422.25,1016.56,446.763,1481.04,538.682,322.499,1526.51,498.177,456.995,1472.07,458.55,403.679,1518.76,287.484,474.786,1459.92,93.006,404.622,1522.34,119.099,405.572,1404.67,61.4698,553.729,1596.82,32.4444,489.061,1616.38,62.9982,495.058,1669.27,44.1998,88.8337,1500.85,522.491,218.4,1525.74,494.073,83.7049,1481.33,461.946,144.262,1518.01,300.333,79.241,1448.92,100.497,156.696,1499.06,114.039,145.56,1386.39,63.4234,13.6419,1572.96,43.8697,72.6909,1600.79,61.6879,58.776,1660.5,42.0933
1.3,260.034,1606.35,1384.31,75.7196,1495.26,1441.05,447.086,1523.31,1411.64,136.813,1603.92,996.371,397.002,1600.9,1004.79,323.867,1426.97,1019.16,193.715,1422.32,1016.56,446.724,1481.04,538.658,322.462,1526.55,498.166,456.967,1472.08,458.524,403.668,1518.76,287.499,474.795,1459.91,93.0093,404.611,1522.36,119.104,405.58,1404.67,61.4452,553.733,1596.82,32.422,489.068,1616.38,62.9878,495.066,1669.25,44.1768,88.8038,1500.91,522.485,218.378,1525.79,494.086,83.6544,1481.39,461.944,144.23,1518.05,300.346,79.2314,1448.92,100.502,156.704,1499.07,114.034,145.555,1386.4,63.4129,13.638,1572.97,43.8704,72.6897,1600.8,61.6801,58.7815,1660.51,42.0754
1.31,260.082,1606.39,1384.31,75.7766,1495.32,1441.07,447.144,1523.29,1411.58,136.78,1604.01,996.395,396.958,1600.93,1004.74,323.808,1427.05,1019.08,193.643,1422.39,1016.54,446.677,1481.04,538.651,322.435,1526.53,498.162,456.946,1472.09,458.52,403.655,1518.77,287.483,474.775,1459.92,92.9728,404.607,1522.36,119.075,405.583,1404.67,61.4302,553.741,1596.8,32.4044,489.073,1616.37,62.9702,495.071,1669.24,44.1587,88.7557,1501,522.477,218.341,1525.81,494.087,83.616,1481.45,461.935,144.204,1518.1,300.363,79.2379,1448.93,100.472,156.706,1499.08,114.028,145.567,1386.41,63.3887,13.6717,1572.91,44.016,72.6851,1600.8,61.6773,58.7829,1660.49,42.0494
1.32,260.127,1606.41,1384.3,75.8157,1495.38,1441.1,447.189,1523.27,1411.53,136.75,1604.09,996.401,396.938,1600.95,1004.71,323.724,1427.07,1019.06,193.558,1422.45,1016.55,446.659,1481.06,538.638,322.413,1526.58,498.141,457.007,1472.26,458.409,403.644,1518.79,287.47,474.77,1459.92,92.9676,404.6,1522.36,119.072,405.59,1404.68,61.4047,553.749,1596.8,32.3908,489.083,1616.35,62.9348,495.078,1669.23,44.139,88.7204,1501.07,522.479,218.312,1525.88,494.1,83.574,1481.54,461.934,144.194,1518.13,300.356,79.25,1448.94,100.475,156.715,1499.07,114.025,145.593,1386.41,63.3982,13.6689,1572.9,43.9817,72.6878,1600.8,61.6662,58.7964,1660.5,42.0293
1.33,260.171,1606.44,1384.29,75.8475,1495.42,1441.13,447.236,1523.28,1411.5,136.719,1604.17,996.406,396.922,1600.97,1004.68,323.618,1427.1,1019.03,193.443,1422.52,1016.56,446.64,1481.08,538.62,322.411,1526.6,498.119,456.895,1472.12,458.498,403.635,1518.8,287.46,474.774,1459.94,92.95,404.613,1522.36,119.054,405.61,1404.69,61.388,553.764,1596.8,32.3768,489.089,1616.37,62.9508,495.087,1669.22,44.1303,88.6789,1501.14,522.489,218.279,1525.9,494.099,83.5329,1481.62,461.934,144.19,1518.17,300.349,79.2155,1448.94,100.493,156.717,1499.08,114.027,145.598,1386.41,63.3944,13.6519,1572.88,43.9948,72.6885,1600.8,61.6552,58.8038,1660.51,42.0239
1.34,260.201,1606.48,1384.29,75.8842,1495.48,1441.14,447.292,1523.31,1411.44,136.684,1604.25,996.399,396.889,1600.98,1004.65,323.508,1427.07,1018.97,193.33,1422.57,1016.58,446.608,1481.09,538.609,322.356,1526.63,498.118,456.871,1472.12,458.498,403.629,1518.79,287.451,474.797,1459.94,92.9515,404.61,1522.37,119.06,405.607,1404.69,61.3975,553.766,1596.8,32.3801,489.093,1616.36,62.9445,495.089,1669.23,44.1187,88.6405,1501.21,522.496,218.247,1525.95,494.113,83.4914,1481.69,461.932,144.178,1518.21,300.341,79.218,1448.95,100.492,156.718,1499.09,114.025,145.602,1386.41,63.3914,13.6519,1572.89,43.9819,72.6915,1600.81,61.6419,58.7953,1660.5,42.0141
1.35,260.244,1606.51,1384.29,75.9081,1495.51,1441.17,447.331,1523.31,1411.41,136.661,1604.31,996.393,396.868,1601,1004.62,323.42,1427.09,1018.95,193.221,1422.63,1016.59,446.566,1481.09,538.619,322.342,1526.63,498.093,456.929,1472.27,458.409,403.625,1518.76,287.423,474.776,1459.94,92.9645,404.609,1522.38,119.053,405.593,1404.69,61.4088,553.758,1596.8,32.378,489.094,1616.37,62.9361,495.09,1669.24,44.1269,88.5951,1501.29,522.5,218.221,1526,494.132,83.454,1481.78,461.934,144.158,1518.26,300.338,79.2239,1448.95,100.503,156.719,1499.1,114.028,145.607,1386.42,63.4039,13.6664,1572.86,43.9563,72.6991,1600.82,61.6258,58.7854,1660.51,42.0043
1.36,260.254,1606.54,1384.28,75.9301,1495.55,1441.2,447.391,1523.33,1411.38,136.639,1604.39,996.388,396.834,1601,1004.6,323.303,1427.08,1018.96,193.126,1422.69,1016.6,446.528,1481.1,538.628,322.32,1526.64,498.103,456.878,1472.28,458.435,403.625,1518.75,287.421,474.77,1459.95,92.9774,404.609,1522.37,119.044,405.575,1404.69,61.4467,553.758,1596.81,32.401,489.082,1616.37,62.9197,495.081,1669.27,44.1554,88.5446,1501.39,522.497,218.176,1526.08,494.175,83.4123,1481.87,461.935,144.143,1518.3,300.331,79.2217,1448.97,100.531,156.715,1499.12,114.035,145.593,1386.42,63.4326,13.6432,1572.86,43.9833,72.7049,1600.83,61.6184,58.7858,1660.53,42.0119
1.37,260.278,1606.56,1384.29,75.9523,1495.58,1441.23,447.4,1523.33,1411.35,136.606,1604.47,996.381,396.798,1601.02,1004.57,323.174,1427.08,1018.99,193.027,1422.74,1016.63,446.482,1481.08,538.649,322.278,1526.65,498.095,456.839,1472.27,458.439,403.596,1518.74,287.429,474.771,1459.93,93.0266,404.604,1522.38,119.044,405.562,1404.7,61.4654,553.747,1596.82,32.4094,489.072,1616.38,62.9336,495.085,1669.27,44.1645,88.4963,1501.48,522.506,218.144,1526.18,494.207,83.3739,1481.94,461.937,144.134,1518.34,300.328,79.2036,1448.99,100.554,156.711,1499.15,114.065,145.613,1386.41,63.469,13.6587,1572.86,43.9788,72.704,1600.84,61.6171,58.7732,1660.53,42.029
1.38,260.288,1606.58,1384.29,75.9618,1495.61,1441.25,447.409,1523.33,1411.31,136.58,1604.54,996.382,396.751,1601.04,1004.56,323.097,1427.08,1018.99,192.939,1422.78,1016.66,446.434,1481.08,538.668,322.251,1526.67,498.092,456.791,1472.26,458.447,403.575,1518.75,287.421,474.743,1459.96,93.0173,404.597,1522.39,119.039,405.552,1404.69,61.4918,553.74,1596.83,32.4099,489.06,1616.37,62.9353,495.072,1669.28,44.1682,88.4466,1501.57,522.507,218.1,1526.23,494.211,83.335,1482.01,461.931,144.117,1518.39,300.33,79.221,1449.02,100.572,156.712,1499.15,114.062,145.612,1386.41,63.4895,13.691,1572.87,43.9667,72.7098,1600.84,61.6167,58.7723,1660.53,42.0281
1.39,260.294,1606.59,1384.3,75.9709,1495.65,1441.29,447.416,1523.32,1411.29,136.548,1604.61,996.394,396.707,1601.06,1004.55,323.042,1427.14,1018.96,192.866,1422.84,1016.68,446.389,1481.06,538.676,322.23,1526.72,498.083,456.745,1472.26,458.469,403.564,1518.75,287.42,474.731,1459.96,93.0198,404.585,1522.39,119.055,405.556,1404.7,61.5046,553.737,1596.82,32.4219,489.053,1616.38,62.9596,495.069,1669.27,44.1641,88.4119,1501.66,522.518,218.072,1526.28,494.206,83.2994,1482.07,461.95,144.097,1518.42,300.34,79.2086,1449.03,100.578,156.711,1499.16,114.078,145.606,1386.41,63.5093,13.6685,1572.89,43.9842,72.7119,1600.85,61.6247,58.7785,1660.54,42.0349
1.4,260.3,1606.61,1384.3,75.9763,1495.68,1441.3,447.356,1523.27,1411.29,136.511,1604.65,996.412,396.674,1601.09,1004.53,322.964,1427.18,1018.95,192.808,1422.9,1016.68,446.347,1481.06,538.682,322.191,1526.74,498.082,456.728,1472.26,458.471,403.545,1518.77,287.429,474.742,1459.96,93.0428,404.592,1522.41,119.067,405.548,1404.7,61.511,553.734,1596.82,32.4314,489.064,1616.39,62.9552,495.078,1669.27,44.1671,88.3679,1501.71,522.534,218.037,1526.33,494.223,83.2627,1482.12,461.957,144.072,1518.45,300.359,79.199,1449.04,100.59,156.695,1499.18,114.086,145.604,1386.42,63.5352,13.6485,1572.88,43.963,72.7044,1600.85,61.6274,58.7879,1660.55,42.0246
1.41,260.315,1606.62,1384.31,75.9694,1495.72,1441.32,447.379,1523.27,1411.25,136.464,1604.71,996.429,396.626,1601.12,1004.5,322.908,1427.24,1018.92,192.771,1422.96,1016.67,446.298,1481.07,538.673,322.161,1526.75,498.053,456.692,1472.26,458.462,403.526,1518.77,287.425,474.734,1459.96,93.0356,404.582,1522.41,119.081,405.551,1404.7,61.5007,553.737,1596.82,32.4301,489.057,1616.37,62.9482,495.069,1669.27,44.1589,88.3376,1501.76,522.533,217.977,1526.39,494.251,83.2268,1482.16,461.968,144.053,1518.5,300.38,79.162,1449.04,100.599,156.694,1499.19,114.085,145.598,1386.43,63.5279,13.6092,1572.86,43.9718,72.6977,1600.86,61.619,58.7839,1660.55,42.0162
1.42,260.323,1606.62,1384.33,75.9486,1495.77,1441.32,447.338,1523.2,1411.25,136.412,1604.75,996.462,396.592,1601.16,1004.49,322.859,1427.34,1018.87,192.728,1423.04,1016.65,446.26,1481.06,538.683,322.117,1526.76,498.058,456.569,1472.09,458.568,403.519,1518.76,287.434,474.744,1459.94,93.0334,404.575,1522.4,119.06,405.569,1404.69,61.481,553.744,1596.81,32.4217,489.062,1616.36,62.9303,495.074,1669.26,44.1413,88.3064,1501.79,522.533,217.96,1526.37,494.257,83.2028,1482.19,461.967,144.023,1518.53,300.39,79.1767,1449.05,100.595,156.696,1499.19,114.091,145.594,1386.44,63.5113,13.5888,1572.84,43.9731,72.6992,1600.86,61.6248,58.7896,1660.56,41.9996
1.43,260.326,1606.61,1384.34,75.9187,1495.79,1441.32,447.352,1523.18,1411.24,136.366,1604.8,996.489,396.547,1601.19,1004.49,322.825,1427.4,1018.82,192.672,1423.12,1016.63,446.222,1481.05,538.673,322.082,1526.79,498.06,456.545,1472.09,458.579,403.5,1518.77,287.439,474.741,1459.94,93.0171,404.573,1522.4,119.082,405.572,1404.69,61.463,553.758,1596.8,32.4165,489.066,1616.36,62.9349,495.085,1669.24,44.119,88.2741,1501.8,522.529,217.927,1526.38,494.272,83.1865,1482.21,461.956,143.995,1518.54,300.404,79.1799,1449.04,100.588,156.681,1499.18,114.093,145.591,1386.45,63.4903,13.5688,1572.8,43.9875,72.6854,1600.85,61.6216,58.7866,1660.55,41.9966
1.44,260.324,1606.6,1384.35,75.8979,1495.8,1441.3,447.359,1523.13,1411.24,136.317,1604.87,996.498,396.498,1601.24,1004.45,322.778,1427.47,1018.8,192.623,1423.17,1016.62,446.196,1481.07,538.662,322.053,1526.81,498.043,456.582,1472.04,458.612,403.485,1518.75,287.432,474.745,1459.93,93.0215,404.568,1522.41,119.081,405.568,1404.71,61.4586,553.75,1596.81,32.4018,489.064,1616.35,62.905,495.082,1669.24,44.1215,88.2481,1501.82,522.521,217.896,1526.41,494.265,83.1565,1482.22,461.952,143.981,1518.55,300.403,79.1718,1449.03,100.575,156.686,1499.19,114.078,145.591,1386.45,63.4834,13.5708,1572.82,43.9724,72.6811,1600.85,61.6078,58.7828,1660.54,41.9857
1.45,260.314,1606.58,1384.37,75.8682,1495.8,1441.28,447.34,1523.09,1411.23,136.28,1604.93,996.494,396.45,1601.28,1004.44,322.729,1427.54,1018.82,192.549,1423.22,1016.63,446.169,1481.09,538.665,322.008,1526.81,498.04,456.474,1472.13,458.561,403.468,1518.78,287.429,474.748,1459.92,93.0297,404.564,1522.41,119.068,405.558,1404.71,61.449,553.744,1596.8,32.3956,489.069,1616.37,62.9203,495.084,1669.24,44.1205,88.2044,1501.83,522.525,217.876,1526.43,494.268,83.1313,1482.23,461.951,143.963,1518.57,300.409,79.1672,1449.04,100.585,156.68,1499.2,114.092,145.592,1386.46,63.4777,13.577,1572.83,43.9601,72.6753,1600.85,61.6048,58.7779,1660.55,41.9856
1.46,260.298,1606.56,1384.39,75.8354,1495.77,1441.25,447.289,1523.01,1411.25,136.246,1604.99,996.501,396.406,1601.33,1004.44,322.66,1427.58,1018.8,192.49,1423.26,1016.63,446.136,1481.11,538.668,321.987,1526.85,498.044,456.459,1472.15,458.564,403.452,1518.79,287.433,474.73,1459.95,93.0024,404.559,1522.4,119.06,405.556,1404.7,61.4643,553.739,1596.81,32.4165,489.062,1616.36,62.9155,495.084,1669.25,44.1367,88.1757,1501.84,522.521,217.859,1526.42,494.286,83.1078,1482.25,461.949,143.949,1518.57,300.42,79.1683,1449.04,100.576,156.676,1499.19,114.097,145.583,1386.45,63.4961,13.5832,1572.83,43.9593,72.6741,1600.84,61.6086,58.7884,1660.54,41.9938
1.47,260.291,1606.53,1384.41,75.7939,1495.75,1441.23,447.255,1522.94,1411.26,136.206,1605.03,996.497,396.357,1601.38,1004.44,322.616,1427.6,1018.8,192.441,1423.31,1016.65,446.113,1481.14,538.678,321.973,1526.85,498.031,456.429,1472.18,458.577,403.436,1518.8,287.432,474.699,1459.96,93.013,404.554,1522.41,119.063,405.542,1404.71,61.4784,553.731,1596.8,32.415,489.062,1616.37,62.9376,495.067,1669.25,44.1454,88.1477,1501.87,522.53,217.818,1526.46,494.292,83.0868,1482.27,461.956,143.935,1518.57,300.414,79.1558,1449.03,100.585,156.671,1499.2,114.115,145.573,1386.45,63.5026,13.5929,1572.82,43.9454,72.6789,1600.84,61.603,58.7714,1660.54,42.0002
1.48,260.262,1606.5,1384.42,75.7603,1495.74,1441.22,447.228,1522.9,1411.27,136.175,1605.07,996.483,396.331,1601.43,1004.43,322.56,1427.63,1018.82,192.385,1423.32,1016.66,446.092,1481.17,538.693,321.942,1526.91,498.018,456.485,1472.13,458.64,403.431,1518.84,287.425,474.697,1459.96,93.039,404.552,1522.42,119.064,405.53,1404.71,61.5004,553.731,1596.82,32.4317,489.053,1616.39,62.9483,495.076,1669.27,44.1609,88.1216,1501.89,522.54,217.803,1526.5,494.311,83.0464,1482.3,461.966,143.925,1518.59,300.418,79.1592,1449.04,100.602,156.662,1499.21,114.13,145.565,1386.46,63.5149,13.5933,1572.83,43.943,72.6732,1600.83,61.6071,58.7691,1660.55,42.0015
1.49,260.244,1606.47,1384.42,75.7371,1495.69,1441.2,447.187,1522.83,1411.29,136.14,1605.12,996.469,396.287,1601.47,1004.41,322.521,1427.66,1018.81,192.355,1423.35,1016.65,446.073,1481.22,538.695,321.928,1526.92,498.017,456.459,1472.18,458.636,403.398,1518.89,287.419,474.71,1459.96,93.054,404.548,1522.41,119.04,405.513,1404.7,61.5152,553.729,1596.82,32.4356,489.048,1616.39,62.9475,495.069,1669.28,44.1677,88.0858,1501.93,522.546,217.78,1526.53,494.323,83.0307,1482.33,461.968,143.906,1518.6,300.41,79.1467,1449.05,100.612,156.655,1499.23,114.14,145.575,1386.45,63.5345,13.5915,1572.82,43.942,72.6716,1600.84,61.5992,58.7661,1660.55,42.0082
1.5,260.215,1606.44,1384.43,75.6929,1495.65,1441.19,447.139,1522.79,1411.3,136.111,1605.17,996.463,396.265,1601.54,1004.44,322.504,1427.66,1018.81,192.317,1423.39,1016.65,446.059,1481.27,538.692,321.911,1526.94,498.003,456.375,1472.28,458.601,403.383,1518.89,287.403,474.696,1459.98,93.0404,404.546,1522.41,119.032,405.518,1404.7,61.529,553.725,1596.82,32.4373,489.048,1616.39,62.9353,495.065,1669.28,44.1601,88.0601,1501.98,522.553,217.742,1526.57,494.338,82.9771,1482.37,461.985,143.903,1518.64,300.39,79.1541,1449.06,100.62,156.654,1499.23,114.139,145.583,1386.45,63.5376,13.5885,1572.81,43.941,72.6823,1600.85,61.5972,58.7576,1660.55,42.0137
1.51,260.171,1606.41,1384.43,75.6522,1495.6,1441.17,447.12,1522.77,1411.3,136.078,1605.2,996.469,396.232,1601.57,1004.42,322.478,1427.71,1018.78,192.301,1423.42,1016.62,446.048,1481.3,538.697,321.894,1526.98,498.013,456.445,1472.23,458.633,403.375,1518.91,287.405,474.67,1460,93.0284,404.547,1522.42,119.047,405.529,1404.71,61.5233,553.728,1596.82,32.4216,489.045,1616.38,62.9215,495.075,1669.28,44.1482,88.0216,1502.06,522.542,217.728,1526.61,494.33,82.9573,1482.43,461.979,143.889,1518.67,300.386,79.1598,1449.05,100.611,156.656,1499.22,114.133,145.598,1386.45,63.5428,13.5899,1572.82,43.9407,72.6843,1600.85,61.5946,58.7657,1660.55,42.0078
1.52,260.126,1606.39,1384.42,75.6062,1495.56,1441.15,447.061,1522.75,1411.3,136.044,1605.25,996.471,396.22,1601.58,1004.38,322.438,1427.72,1018.76,192.284,1423.43,1016.58,446.046,1481.35,538.69,321.889,1527,497.997,456.521,1472.42,458.529,403.371,1518.92,287.391,474.709,1459.99,93.0402,404.546,1522.42,119.044,405.537,1404.72,61.5203,553.736,1596.83,32.4115,489.047,1616.38,62.9021,495.081,1669.28,44.1352,88.0078,1502.14,522.539,217.717,1526.64,494.32,82.9559,1482.48,461.975,143.888,1518.68,300.388,79.1662,1449.06,100.615,156.666,1499.24,114.124,145.616,1386.46,63.5353,13.6052,1572.85,43.917,72.6862,1600.86,61.5857,58.7689,1660.55,41.9835
1.53,260.087,1606.51,1384.52,75.5517,1495.51,1441.14,447.026,1522.73,1411.31,136.013,1605.27,996.469,396.195,1601.62,1004.4,322.45,1427.77,1018.72,192.275,1423.48,1016.56,446.042,1481.39,538.687,321.875,1527.06,497.996,456.513,1472.44,458.521,403.368,1518.93,287.375,474.712,1459.99,93.0378,404.543,1522.43,119.04,405.553,1404.71,61.5102,553.75,1596.83,32.4131,489.059,1616.38,62.9232,495.089,1669.28,44.115,88.0016,1502.21,522.534,217.717,1526.69,494.328,82.9515,1482.53,461.964,143.892,1518.71,300.38,79.1668,1449.07,100.61,156.684,1499.24,114.119,145.626,1386.47,63.5347,13.6044,1572.86,43.9165,72.6882,1600.87,61.588,58.7762,1660.56,41.9697
1.54,259.997,1606.32,1384.42,75.4922,1495.44,1441.12,446.967,1522.73,1411.32,135.978,1605.31,996.471,396.182,1601.63,1004.37,322.439,1427.8,1018.66,192.257,1423.51,1016.52,446.025,1481.45,538.677,321.867,1527.09,497.991,456.513,1472.48,458.512,403.369,1518.96,287.375,474.708,1460.01,93.0215,404.552,1522.44,119.051,405.562,1404.73,61.5036,553.749,1596.84,32.4075,489.068,1616.38,62.9032,495.092,1669.26,44.1034,87.9861,1502.25,522.535,217.717,1526.73,494.321,82.9515,1482.58,461.959,143.886,1518.75,300.384,79.194,1449.08,100.605,156.697,1499.24,114.104,145.633,1386.48,63.5268,13.5887,1572.87,43.9123,72.6944,1600.88,61.5845,58.7866,1660.56,41.9641
1.55,259.957,1606.43,1384.55,75.4249,1495.37,1441.08,446.9,1522.72,1411.33,135.953,1605.33,996.477,396.161,1601.65,1004.38,322.435,1427.85,1018.61,192.252,1423.55,1016.48,446.014,1481.48,538.682,321.854,1527.12,497.996,456.435,1472.57,458.472,403.347,1518.98,287.377,474.709,1459.99,93.0398,404.539,1522.45,119.048,405.558,1404.72,61.4913,553.746,1596.82,32.3967,489.07,1616.37,62.8972,495.091,1669.26,44.0971,87.9751,1502.29,522.522,217.714,1526.76,494.312,82.9433,1482.61,461.952,143.884,1518.79,300.388,79.1999,1449.09,100.602,156.706,1499.24,114.088,145.647,1386.46,63.5255,13.5757,1572.85,43.8969,72.6904,1600.87,61.5843,58.7865,1660.56,41.9509
1.56,259.889,1606.41,1384.56,75.2479,1495.2,1441.1,446.844,1522.69,1411.35,135.94,1605.36,996.476,396.148,1601.67,1004.39,322.421,1427.89,1018.57,192.243,1423.57,1016.45,446.011,1481.5,538.679,321.846,1527.15,497.992,456.507,1472.54,458.519,403.345,1518.99,287.393,474.678,1460.02,93.0196,404.528,1522.45,119.052,405.558,1404.73,61.4822,553.762,1596.82,32.4072,489.063,1616.38,62.906,495.09,1669.25,44.074,87.9718,1502.35,522.507,217.709,1526.81,494.325,82.9406,1482.65,461.941,143.872,1518.81,300.391,79.2036,1449.08,100.587,156.715,1499.23,114.091,145.645,1386.48,63.5152,13.5698,1572.86,43.8917,72.6829,1600.87,61.5885,58.7948,1660.55,41.9445
1.57,259.82,1606.36,1384.57,75.1765,1495.12,1441.08,446.799,1522.67,1411.37,135.927,1605.39,996.485,396.136,1601.69,1004.4,322.407,1427.92,1018.56,192.229,1423.6,1016.44,445.992,1481.55,538.675,321.841,1527.18,497.996,456.499,1472.57,458.513,403.346,1518.96,287.37,474.708,1459.98,93.046,404.523,1522.47,119.059,405.551,1404.72,61.4797,553.749,1596.82,32.4054,489.061,1616.38,62.915,495.078,1669.25,44.0933,87.9658,1502.38,522.507,217.699,1526.87,494.309,82.9416,1482.7,461.949,143.874,1518.84,300.391,79.1958,1449.07,100.597,156.716,1499.24,114.083,145.643,1386.49,63.5221,13.5705,1572.84,43.8988,72.6809,1600.89,61.5934,58.7854,1660.57,41.9455
1.58,259.746,1606.3,1384.59,75.1107,1495.05,1441.03,446.75,1522.63,1411.4,135.904,1605.43,996.489,396.131,1601.7,1004.41,322.362,1427.93,1018.56,192.207,1423.61,1016.42,445.992,1481.59,538.689,321.837,1527.23,497.999,456.497,1472.61,458.519,403.35,1518.98,287.375,474.686,1460,93.0335,404.517,1522.46,119.063,405.545,1404.73,61.4855,553.745,1596.82,32.4138,489.058,1616.38,62.9242,495.087,1669.27,44.1128,87.9517,1502.41,522.507,217.691,1526.94,494.326,82.9253,1482.73,461.944,143.874,1518.86,300.395,79.21,1449.09,100.606,156.727,1499.26,114.099,145.646,1386.49,63.5304,13.5577,1572.82,43.9049,72.6753,1600.88,61.5888,58.7802,1660.57,41.9525
1.59,259.672,1606.26,1384.63,75.0311,1494.98,1441,446.674,1522.57,1411.43,135.894,1605.45,996.492,396.104,1601.74,1004.45,322.362,1427.93,1018.53,192.18,1423.64,1016.4,445.971,1481.62,538.698,321.837,1527.28,498.01,456.51,1472.66,458.528,403.355,1518.97,287.373,474.681,1459.98,93.0521,404.52,1522.45,119.059,405.538,1404.73,61.4874,553.739,1596.82,32.4175,489.057,1616.41,62.9569,495.079,1669.26,44.1154,87.9444,1502.45,522.504,217.676,1526.97,494.336,82.9202,1482.76,461.955,143.872,1518.88,300.393,79.2068,1449.11,100.615,156.719,1499.28,114.113,145.621,1386.5,63.5265,13.5431,1572.82,43.9264,72.6716,1600.87,61.5884,58.7812,1660.57,41.9499
1.6,259.582,1606.21,1384.66,75.0717,1494.98,1440.87,446.612,1522.52,1411.45,135.861,1605.47,996.501,396.082,1601.77,1004.49,322.326,1427.94,1018.53,192.156,1423.63,1016.39,445.967,1481.66,538.712,321.835,1527.31,498.007,456.491,1472.68,458.539,403.339,1519.02,287.376,474.698,1459.98,93.0744,404.511,1522.47,119.065,405.525,1404.73,61.4978,553.733,1596.83,32.4303,489.061,1616.4,62.9526,495.064,1669.27,44.1236,87.9387,1502.48,522.504,217.649,1527.01,494.345,82.9143,1482.79,461.951,143.861,1518.9,300.404,79.1986,1449.11,100.623,156.71,1499.29,114.123,145.611,1386.5,63.5393,13.55,1572.81,43.9261,72.6685,1600.87,61.5923,58.7714,1660.57,41.9675
1.61,259.51,1606.16,1384.7,74.9891,1494.89,1440.83,446.525,1522.45,1411.48,135.856,1605.48,996.496,396.064,1601.79,1004.51,322.287,1427.93,1018.51,192.13,1423.63,1016.37,445.959,1481.68,538.72,321.846,1527.33,498.018,456.505,1472.72,458.553,403.336,1519.04,287.39,474.672,1459.98,93.0868,404.51,1522.46,119.055,405.519,1404.74,61.5213,553.72,1596.83,32.4463,489.044,1616.43,62.9825,495.063,1669.29,44.1543,87.9293,1502.5,522.504,217.629,1527.05,494.355,82.9064,1482.81,461.952,143.862,1518.9,300.397,79.181,1449.09,100.631,156.696,1499.27,114.12,145.595,1386.48,63.5521,13.5616,1572.8,43.9288,72.6731,1600.87,61.5951,58.7691,1660.57,41.9747
1.62,259.42,1606.11,1384.72,74.811,1494.73,1440.85,446.414,1522.39,1411.51,135.841,1605.49,996.504,396.055,1601.79,1004.52,322.238,1427.9,1018.51,192.097,1423.63,1016.34,445.952,1481.7,538.736,321.855,1527.36,498,456.477,1472.73,458.561,403.33,1519.05,287.395,474.659,1460,93.0858,404.519,1522.46,119.045,405.506,1404.74,61.5336,553.714,1596.83,32.4397,489.036,1616.43,62.9885,495.062,1669.28,44.1533,87.9174,1502.52,522.513,217.627,1527.09,494.364,82.8931,1482.83,461.948,143.867,1518.91,300.405,79.1774,1449.11,100.649,156.694,1499.27,114.133,145.588,1386.49,63.5667,13.563,1572.81,43.9318,72.6762,1600.87,61.5948,58.7569,1660.56,41.978
1.63,259.352,1606.07,1384.76,74.8797,1494.69,1440.76,446.315,1522.3,1411.53,135.831,1605.49,996.497,396.039,1601.78,1004.51,322.206,1427.89,1018.51,192.09,1423.63,1016.32,445.947,1481.72,538.734,321.853,1527.38,498.011,456.498,1472.75,458.553,403.334,1519.08,287.392,474.667,1459.99,93.0892,404.514,1522.47,119.049,405.501,1404.74,61.5519,553.714,1596.84,32.4487,489.029,1616.42,62.9507,495.058,1669.29,44.15,87.8979,1502.54,522.515,217.618,1527.1,494.365,82.8722,1482.84,461.953,143.867,1518.92,300.382,79.1738,1449.1,100.645,156.696,1499.28,114.133,145.585,1386.49,63.5616,13.5522,1572.82,43.9478,72.6786,1600.86,61.5937,58.7635,1660.57,41.9898
1.64,259.302,1606.02,1384.78,74.9033,1494.68,1440.69,446.254,1522.25,1411.55,135.824,1605.48,996.485,396.032,1601.76,1004.52,322.203,1427.88,1018.47,192.079,1423.61,1016.28,445.947,1481.74,538.745,321.856,1527.38,498.026,456.48,1472.75,458.557,403.335,1519.08,287.385,474.669,1460,93.0883,404.523,1522.47,119.057,405.505,1404.74,61.5462,553.716,1596.83,32.4361,489.026,1616.42,62.9605,495.051,1669.29,44.1382,87.9176,1502.55,522.5,217.621,1527.11,494.349,82.8837,1482.87,461.931,143.879,1518.92,300.371,79.1952,1449.11,100.629,156.698,1499.27,114.128,145.585,1386.48,63.5565,13.5724,1572.82,43.9374,72.6905,1600.87,61.5874,58.7726,1660.57,41.9867
1.65,259.217,1605.97,1384.79,74.838,1494.61,1440.66,446.197,1522.2,1411.58,135.808,1605.46,996.474,396.022,1601.74,1004.53,322.202,1427.86,1018.45,192.063,1423.6,1016.25,445.952,1481.74,538.729,321.845,1527.38,498.016,456.533,1472.75,458.548,403.348,1519.07,287.374,474.684,1460,93.0978,404.522,1522.46,119.045,405.511,1404.74,61.545,553.711,1596.84,32.4243,489.04,1616.41,62.9411,495.066,1669.3,44.1335,87.9132,1502.56,522.485,217.617,1527.13,494.333,82.8891,1482.88,461.922,143.882,1518.92,300.354,79.1925,1449.1,100.628,156.704,1499.27,114.107,145.603,1386.48,63.5568,13.5724,1572.82,43.9329,72.6946,1600.87,61.5855,58.7806,1660.58,41.9782
1.66,259.163,1605.93,1384.8,74.7536,1494.57,1440.62,446.136,1522.13,1411.61,135.804,1605.44,996.452,396.02,1601.71,1004.52,322.187,1427.85,1018.41,192.067,1423.58,1016.21,445.958,1481.74,538.713,321.856,1527.39,498.007,456.54,1472.74,458.538,403.353,1519.07,287.349,474.698,1459.99,93.0954,404.53,1522.47,119.036,405.516,1404.74,61.5308,553.733,1596.84,32.4101,489.048,1616.4,62.905,495.073,1669.28,44.092,87.8987,1502.57,522.472,217.632,1527.12,494.307,82.8865,1482.87,461.9,143.896,1518.92,300.346,79.2043,1449.11,100.613,156.716,1499.27,114.088,145.621,1386.48,63.5411,13.5832,1572.83,43.9437,72.711,1600.88,61.5673,58.7892,1660.57,41.9542
1.67,259.08,1605.69,1384.68,74.6745,1494.5,1440.59,446.041,1522.06,1411.63,135.785,1605.4,996.449,396.004,1601.68,1004.51,322.188,1427.83,1018.35,192.068,1423.55,1016.15,445.962,1481.73,538.707,321.854,1527.38,497.991,456.519,1472.75,458.496,403.346,1519.05,287.357,474.7,1460,93.0804,404.526,1522.48,119.027,405.531,1404.74,61.514,553.741,1596.83,32.3991,489.053,1616.41,62.9064,495.079,1669.27,44.0806,87.8996,1502.58,522.459,217.64,1527.1,494.282,82.8929,1482.89,461.889,143.886,1518.91,300.323,79.2276,1449.09,100.591,156.736,1499.25,114.07,145.64,1386.48,63.5204,13.5983,1572.82,43.9313,72.7091,1600.88,61.5771,58.803,1660.56,41.9353
1.68,259.011,1605.63,1384.71,74.5883,1494.45,1440.55,445.996,1521.99,1411.66,135.771,1605.37,996.446,396.001,1601.64,1004.5,322.171,1427.82,1018.31,192.06,1423.49,1016.12,445.965,1481.71,538.699,321.847,1527.37,497.997,456.525,1472.76,458.494,403.35,1519.07,287.36,474.678,1460.02,93.0571,404.519,1522.49,119.037,405.545,1404.74,61.4966,553.743,1596.83,32.3956,489.069,1616.4,62.88,495.093,1669.29,44.0715,87.912,1502.58,522.443,217.646,1527.09,494.282,82.8939,1482.88,461.876,143.892,1518.91,300.326,79.2325,1449.1,100.578,156.741,1499.25,114.062,145.663,1386.46,63.5217,13.6067,1572.83,43.9329,72.721,1600.88,61.5693,58.8108,1660.57,41.9308
1.69,258.952,1605.58,1384.75,74.5152,1494.38,1440.52,445.941,1521.92,1411.71,135.77,1605.34,996.448,395.99,1601.61,1004.5,322.168,1427.78,1018.31,192.054,1423.45,1016.1,445.972,1481.7,538.684,321.831,1527.33,497.996,456.533,1472.72,458.488,403.348,1519.04,287.356,474.685,1460.02,93.0471,404.528,1522.48,119.039,405.551,1404.75,61.4858,553.751,1596.83,32.3867,489.076,1616.38,62.8546,495.095,1669.26,44.0598,87.8983,1502.56,522.444,217.651,1527.06,494.292,82.8771,1482.85,461.873,143.892,1518.89,300.323,79.2171,1449.08,100.573,156.742,1499.24,114.055,145.661,1386.46,63.496,13.6045,1572.82,43.9317,72.7205,1600.87,61.57,58.8175,1660.55,41.9332
1.7,258.896,1605.51,1384.79,74.4458,1494.31,1440.48,445.888,1521.86,1411.74,135.752,1605.3,996.45,395.969,1601.58,1004.51,322.15,1427.72,1018.32,192.045,1423.43,1016.1,445.98,1481.68,538.7,321.819,1527.32,497.995,456.527,1472.68,458.518,403.344,1519.03,287.358,474.711,1460.03,93.0556,404.537,1522.49,119.036,405.547,1404.74,61.4953,553.756,1596.83,32.3948,489.081,1616.39,62.8839,495.097,1669.26,44.0665,87.8914,1502.54,522.456,217.651,1527.05,494.292,82.8763,1482.84,461.873,143.89,1518.88,300.319,79.2149,1449.07,100.587,156.741,1499.24,114.059,145.663,1386.47,63.4875,13.606,1572.83,43.9568,72.7222,1600.87,61.5709,58.8156,1660.55,41.9361
1.71,258.852,1605.61,1384.96,74.374,1494.22,1440.45,445.806,1521.76,1411.79,135.739,1605.26,996.455,395.948,1601.54,1004.52,322.144,1427.68,1018.32,192.037,1423.39,1016.11,445.959,1481.64,538.706,321.819,1527.28,498.016,456.52,1472.65,458.527,403.346,1519.01,287.374,474.712,1460.01,93.0714,404.53,1522.48,119.048,405.546,1404.75,61.4949,553.758,1596.83,32.399,489.074,1616.4,62.9034,495.095,1669.26,44.0808,87.8757,1502.5,522.467,217.629,1527.01,494.316,82.8638,1482.81,461.878,143.883,1518.86,300.326,79.2048,1449.07,100.581,156.725,1499.23,114.063,145.634,1386.47,63.4654,13.5978,1572.81,43.9737,72.7065,1600.87,61.5801,58.8024,1660.54,41.9411
1.72,258.766,1605.38,1384.9,74.2975,1494.13,1440.4,445.725,1521.66,1411.85,135.724,1605.23,996.46,395.928,1601.51,1004.55,322.127,1427.63,1018.35,192.016,1423.34,1016.12,445.946,1481.61,538.732,321.807,1527.23,498.018,456.501,1472.63,458.529,403.332,1519,287.38,474.686,1460.01,93.079,404.519,1522.49,119.054,405.539,1404.74,61.5192,553.738,1596.83,32.4092,489.058,1616.39,62.89,495.082,1669.28,44.1022,87.8719,1502.48,522.462,217.621,1526.98,494.323,82.8552,1482.78,461.872,143.879,1518.85,300.337,79.1975,1449.06,100.577,156.718,1499.23,114.077,145.622,1386.45,63.4768,13.6014,1572.81,43.9786,72.6979,1600.86,61.5917,58.7872,1660.55,41.9596
1.73,258.706,1605.32,1384.95,74.0099,1493.94,1440.45,445.648,1521.58,1411.91,135.697,1605.19,996.461,395.904,1601.46,1004.56,322.098,1427.56,1018.37,191.991,1423.27,1016.12,445.926,1481.58,538.734,321.791,1527.21,498.028,456.487,1472.61,458.531,403.326,1518.97,287.387,474.678,1460.02,93.0784,404.522,1522.48,119.061,405.525,1404.74,61.522,553.728,1596.83,32.4208,489.054,1616.4,62.9353,495.078,1669.29,44.1276,87.8864,1502.44,522.466,217.607,1526.98,494.35,82.8606,1482.76,461.883,143.886,1518.82,300.352,79.1813,1449.07,100.587,156.703,1499.23,114.091,145.606,1386.45,63.4892,13.6066,1572.83,43.9962,72.6946,1600.86,61.6095,58.7777,1660.54,41.9687
1.74,258.639,1605.26,1385,73.9296,1493.85,1440.43,445.572,1521.52,1411.97,135.693,1605.15,996.457,395.88,1601.41,1004.57,322.083,1427.49,1018.39,191.961,1423.2,1016.11,445.916,1481.54,538.742,321.795,1527.18,498.034,456.482,1472.59,458.548,403.324,1518.95,287.381,474.679,1460.01,93.0769,404.517,1522.46,119.049,405.524,1404.74,61.5288,553.726,1596.84,32.4325,489.051,1616.41,62.947,495.069,1669.29,44.1441,87.875,1502.4,522.475,217.6,1526.94,494.35,82.8577,1482.73,461.881,143.882,1518.81,300.357,79.1957,1449.06,100.589,156.701,1499.24,114.092,145.593,1386.45,63.4994,13.6154,1572.82,44.0133,72.6916,1600.86,61.6055,58.7715,1660.54,41.9807
1.75,258.577,1605.18,1385.06,73.8499,1493.78,1440.39,445.501,1521.45,1412.02,135.682,1605.1,996.463,395.869,1601.35,1004.58,322.06,1427.45,1018.38,191.947,1423.16,1016.09,445.896,1481.51,538.747,321.789,1527.15,498.022,456.461,1472.57,458.541,403.333,1518.93,287.383,474.693,1459.98,93.0956,404.525,1522.44,119.053,405.516,1404.74,61.5252,553.724,1596.82,32.4274,489.05,1616.4,62.9465,495.077,1669.29,44.1585,87.8951,1502.36,522.468,217.589,1526.93,494.348,82.8681,1482.7,461.866,143.88,1518.79,300.346,79.1859,1449.05,100.59,156.701,1499.22,114.102,145.58,1386.45,63.4982,13.6241,1572.81,44.0267,72.7021,1600.84,61.6017,58.7635,1660.54,41.9945
1.76,258.53,1605.12,1385.1,73.862,1493.78,1440.3,445.358,1521.33,1412.07,135.67,1605.05,996.454,395.848,1601.29,1004.58,322.043,1427.38,1018.36,191.927,1423.1,1016.07,445.885,1481.47,538.742,321.765,1527.13,498.022,456.453,1472.55,458.539,403.316,1518.97,287.398,474.695,1459.99,93.0804,404.523,1522.45,119.049,405.52,1404.73,61.5204,553.721,1596.83,32.4421,489.049,1616.41,62.9431,495.066,1669.29,44.1399,87.8904,1502.33,522.46,217.586,1526.86,494.348,82.8645,1482.66,461.851,143.88,1518.77,300.34,79.1854,1449.04,100.582,156.702,1499.22,114.09,145.575,1386.45,63.4934,13.6474,1572.82,44.0322,72.7016,1600.85,61.6154,58.7618,1660.53,41.9851
1.77,258.471,1605.07,1385.12,73.7759,1493.71,1440.26,445.311,1521.26,1412.14,135.665,1604.98,996.442,395.836,1601.23,1004.59,322.026,1427.36,1018.34,191.919,1423.05,1016.04,445.881,1481.44,538.734,321.766,1527.12,498.016,456.461,1472.5,458.548,403.312,1518.95,287.394,474.699,1459.99,93.0957,404.521,1522.46,119.061,405.528,1404.73,61.5194,553.727,1596.83,32.4328,489.055,1616.4,62.9394,495.073,1669.28,44.1476,87.8886,1502.29,522.456,217.592,1526.83,494.343,82.8551,1482.63,461.853,143.876,1518.74,300.332,79.1863,1449.03,100.583,156.712,1499.21,114.088,145.573,1386.44,63.4842,13.6671,1572.83,44.0495,72.6981,1600.85,61.6175,58.7709,1660.53,41.9929
1.78,258.412,1605.02,1385.16,73.7004,1493.67,1440.22,445.251,1521.2,1412.18,135.649,1604.9,996.446,395.819,1601.15,1004.58,322.035,1427.27,1018.3,191.93,1422.97,1016.01,445.879,1481.41,538.743,321.759,1527.05,498.019,456.442,1472.48,458.537,403.293,1518.96,287.407,474.697,1459.99,93.0861,404.512,1522.45,119.054,405.52,1404.73,61.518,553.728,1596.83,32.4341,489.052,1616.41,62.9508,495.078,1669.28,44.1437,87.8622,1502.26,522.455,217.591,1526.78,494.333,82.8467,1482.59,461.838,143.88,1518.71,300.334,79.2042,1449.04,100.551,156.713,1499.2,114.077,145.569,1386.44,63.4785,13.6738,1572.85,44.0507,72.7012,1600.85,61.6231,58.7654,1660.53,41.9837
1.79,258.357,1604.96,1385.18,73.6299,1493.62,1440.2,444.917,1520.95,1412.29,135.632,1604.83,996.436,395.797,1601.08,1004.59,322.027,1427.22,1018.26,191.924,1422.9,1015.98,445.872,1481.39,538.726,321.742,1527.05,498.009,456.439,1472.45,458.533,403.301,1518.94,287.399,474.707,1459.98,93.0912,404.513,1522.47,119.049,405.527,1404.74,61.5136,553.728,1596.83,32.4192,489.045,1616.39,62.9159,495.083,1669.28,44.1263,87.8706,1502.23,522.43,217.593,1526.75,494.316,82.8368,1482.56,461.818,143.875,1518.69,300.326,79.1967,1449.03,100.547,156.709,1499.19,114.06,145.58,1386.45,63.4588,13.6939,1572.88,44.0414,72.6976,1600.85,61.613,58.7802,1660.51,41.9792
1.8,258.295,1604.91,1385.21,73.5468,1493.58,1440.19,444.85,1520.9,1412.35,135.602,1604.75,996.429,395.769,1600.99,1004.6,322.037,1427.14,1018.24,191.912,1422.8,1015.96,445.87,1481.36,538.718,321.74,1527,498.015,456.433,1472.42,458.525,403.301,1518.94,287.407,474.708,1460,93.0699,404.527,1522.46,119.045,405.537,1404.74,61.5025,553.731,1596.84,32.4024,489.044,1616.4,62.9063,495.079,1669.28,44.1218,87.863,1502.18,522.419,217.596,1526.7,494.296,82.8341,1482.53,461.81,143.874,1518.66,300.31,79.2068,1449.02,100.538,156.715,1499.18,114.056,145.595,1386.44,63.4527,13.7264,1572.86,44.0936,72.6955,1600.84,61.6202,58.7898,1660.51,41.9751
1.81,258.245,1604.89,1385.23,73.4632,1493.55,1440.17,444.788,1520.85,1412.41,135.577,1604.67,996.426,395.743,1600.91,1004.61,322.04,1427.05,1018.21,191.892,1422.72,1015.95,445.868,1481.32,538.723,321.74,1526.97,498.01,456.431,1472.4,458.53,403.3,1518.91,287.404,474.697,1459.99,93.0609,404.53,1522.45,119.049,405.542,1404.73,61.5022,553.735,1596.83,32.4088,489.054,1616.39,62.9165,495.083,1669.28,44.1119,87.854,1502.15,522.399,217.599,1526.64,494.281,82.8243,1482.51,461.801,143.863,1518.64,300.309,79.1907,1449.01,100.522,156.715,1499.15,114.051,145.594,1386.43,63.43,13.7243,1572.87,44.0808,72.7023,1600.84,61.6194,58.7964,1660.51,41.9728
1.82,258.191,1604.84,1385.24,73.3982,1493.52,1440.17,444.686,1520.8,1412.48,135.539,1604.58,996.427,395.71,1600.84,1004.65,322.009,1426.98,1018.21,191.868,1422.61,1015.93,445.867,1481.27,538.715,321.739,1526.95,498.017,456.435,1472.35,458.527,403.308,1518.87,287.393,474.712,1459.99,93.0628,404.524,1522.45,119.037,405.542,1404.73,61.5015,553.742,1596.82,32.4134,489.055,1616.39,62.9123,495.087,1669.27,44.1155,87.8369,1502.11,522.396,217.579,1526.6,494.273,82.8001,1482.49,461.799,143.862,1518.61,300.302,79.1767,1449.02,100.524,156.721,1499.15,114.045,145.595,1386.43,63.4272,13.6595,1572.99,43.8222,72.7005,1600.83,61.6143,58.799,1660.51,41.9693
1.83,258.125,1604.78,1385.25,73.3226,1493.48,1440.17,444.656,1520.76,1412.53,135.519,1604.5,996.413,395.697,1600.74,1004.63,321.969,1426.87,1018.22,191.821,1422.54,1015.94,445.857,1481.24,538.698,321.74,1526.92,498.012,456.42,1472.33,458.503,403.307,1518.87,287.383,474.694,1460.01,93.039,404.537,1522.45,119.048,405.546,1404.73,61.4953,553.742,1596.83,32.4143,489.062,1616.38,62.9013,495.085,1669.26,44.1087,87.8093,1502.08,522.388,217.56,1526.57,494.266,82.7787,1482.47,461.784,143.853,1518.58,300.278,79.1761,1449,100.506,156.713,1499.16,114.04,145.584,1386.42,63.409,13.6617,1572.99,43.8153,72.7059,1600.83,61.6158,58.8035,1660.51,41.9838
